IESNA:LM-63-2002
[TEST] LTL28661P2
[TESTDATE] 8/25/2015
[ISSUEDATE] 10/6/2015
[TESTLAB] SCALED PHOTOMETRY
[TESTMETHOD] 
[MANUFAC] Lithonia Lighting
[LUMCAT] DMW2 2000LM WD AFL MVOLT 30K 90CRI    
[LUMINAIRE] DMW2 L24 2000LM WD AFL MVOLT GZ1 30K 90CRI (GLEDS)
[LAMPCAT] 
[LAMP] LED
[BALLAST] LED DRIVER
[BALLASTCAT] 
[DISTRIBUTION] DIRECT, SC-0=1.28, SC-90=1.51
[_TOTALLUMINAIRELUMENS] 1725.2
[_LAMPPOSITION] 0 , 0
[_LAMPTYPE] LED
[_LAMPWATTAGE] 18.78
[_MOUNTING] 
[_FAMILY] DMW2 LED
[_PRODUCTID] d2d470fa-a2bc-4219-8ecf-243bada4a3bb
TILT=NONE
1  -1  0.783621301775148  73  17  1  1  0.4  1.96  0.05
1  1  18.78
0  2.5  5  7.5  10  12.5  15  17.5  20  22.5  25  27.5  30
32.5  35  37.5  40  42.5  45  47.5  50  52.5  55  57.5  60
62.5  65  67.5  70  72.5  75  77.5  80  82.5  85  87.5  90
92.5  95  97.5  100  102.5  105  107.5  110  112.5  115
117.5  120  122.5  125  127.5  130  132.5  135  137.5  140
142.5  145  147.5  150  152.5  155  157.5  160  162.5  165  167.5  170  172.5  175  177.5  180
0  22.5  45  67.5  90  112.5  135  157.5  180  202.5  225  247.5  270  292.5  315  337.5  360
639  631  629  626  621  617  611  603  595  585  575  562
549  534  518  500  480  459  436  413  389  364  336  307
278  249  221  193  166  140  115  90  67  46  27  14  8
7  6  5  5  4  4  3  3  2  2  1  2  1  1  0  1  1  1  0
0  0  1  1  1  1  1  0  0  0  0  0  0  0  0  0  0
639  635  635  631  628  624  619  611  604  595  583  572
561  547  532  517  500  480  461  440  417  392  365  337
307  276  246  217  187  158  130  103  77  54  34  20  13
12  10  8  7  6  5  4  4  3  3  2  2  1  1  1  1  1  0  0
1  0  0  1  1  1  1  0  0  0  0  0  0  0  0  0  0
639  642  640  639  635  632  627  621  614  607  600  592
584  576  568  557  546  534  520  502  483  460  432  402
369  335  299  264  228  193  160  127  97  70  46  28  21
19  18  16  14  12  10  8  7  5  5  4  4  3  3  2  2  2
1  1  1  0  0  0  0  0  0  0  0  0  0  0  0  0  0  0  0
639  642  641  639  637  633  631  627  622  618  614  612
610  608  605  601  596  588  578  564  545  523  493  460
423  384  343  302  261  221  183  146  111  80  53  34
25  23  22  21  19  17  15  14  12  10  8  6  5  5  4  4
4  3  3  2  2  1  0  0  0  0  0  0  0  0  0  0  0  0  0
0  0
639  642  641  640  638  636  633  630  628  624  623  622
623  623  621  620  618  613  603  590  573  549  520  484
446  405  363  320  277  234  193  155  119  86  58  37
25  23  23  22  20  19  17  15  14  12  10  8  7  6  5  5
4  4  3  3  2  2  1  0  0  0  0  0  0  0  0  0  0  0  0
0  0
639  641  640  638  636  633  631  627  622  618  615  613
612  610  608  605  601  594  584  571  554  532  505  471
434  395  355  314  274  232  194  156  121  89  61  39
27  24  23  21  20  18  16  14  12  10  8  7  6  5  4  4
4  3  3  2  2  1  1  0  0  0  0  0  0  0  0  0  0  0  0
0  0
639  640  640  638  635  631  626  620  614  608  601  594
588  581  574  564  554  543  528  512  495  473  448  418
386  352  317  282  247  212  177  144  112  83  57  37
24  21  19  17  15  14  12  10  8  6  5  5  4  4  3  3  2
2  2  1  1  1  0  0  0  0  0  0  0  0  0  0  0  0  0  0
0
639  635  634  631  628  625  619  612  603  595  585  575
564  551  536  521  505  487  469  448  427  403  377  350
321  292  262  233  203  175  146  119  92  68  46  28  17
14  12  10  9  7  6  5  5  4  3  3  3  2  1  1  1  1  1
1  1  1  1  0  1  1  1  1  0  1  0  0  0  0  0  0  0
639  629  628  625  620  615  608  600  592  581  570  558
543  528  511  493  473  452  431  407  382  355  328  300
271  243  216  188  162  136  111  87  64  43  26  14  9
8  7  6  5  5  4  3  3  3  2  2  2  2  1  1  1  1  1  1
1  0  1  0  1  1  1  1  0  0  0  1  0  0  0  0  0
639  635  633  630  626  621  616  608  601  592  581  569
556  543  527  511  495  477  457  434  412  385  359  330
301  272  243  214  184  155  128  101  75  53  33  20  15
13  11  9  7  6  5  5  4  3  3  2  2  1  1  0  1  1  0  1
0  0  0  1  1  0  0  0  0  0  0  0  0  0  0  0  0
639  641  639  637  633  629  625  620  614  607  600  593
586  577  567  557  546  534  519  502  482  458  429  399
367  332  297  262  226  191  158  125  94  68  44  28  22
20  18  16  13  11  10  8  6  5  4  4  4  3  3  2  2  2
1  0  0  0  0  1  0  0  0  0  0  0  0  0  0  0  0  0  0
639  639  639  638  636  632  630  628  625  623  619  618
616  614  612  608  603  595  585  569  550  524  493  458
420  379  338  297  255  215  176  139  105  75  49  32
26  24  22  20  18  16  15  13  10  8  6  5  5  4  4  3
3  3  2  2  1  0  0  1  0  0  0  0  0  0  0  0  0  0  0
0  0
639  641  640  640  638  635  634  633  632  630  630  632
632  633  634  632  630  624  614  598  576  548  514  477
435  392  348  304  259  216  176  138  102  72  46  29
24  23  22  21  19  17  16  14  12  10  8  7  6  5  5  4
4  3  2  2  2  1  0  0  0  0  0  0  0  0  0  0  0  0  0
0  0
639  641  640  639  637  634  631  628  626  623  621  620
619  618  614  612  609  601  589  572  550  524  492  455
415  374  331  289  247  206  167  130  96  67  41  27  23
22  21  19  17  15  14  12  10  8  7  5  5  4  4  3  3  2
2  2  1  1  0  0  0  0  0  0  0  0  0  0  0  0  0  0  0
639  640  638  636  633  630  625  620  614  609  603  596
589  583  572  563  553  542  527  509  487  461  432  400
365  329  291  255  217  181  147  114  83  57  35  22  19
18  16  14  12  10  9  7  5  5  4  3  4  3  3  2  2  1  1
0  0  0  0  1  0  0  0  0  0  0  0  0  0  0  0  0  0
639  635  632  629  625  619  613  606  598  590  579  568
556  544  529  513  497  479  459  436  412  386  359  328
299  268  237  206  176  146  118  90  65  44  25  15  13
11  9  8  6  5  5  4  3  3  2  2  2  1  1  0  0  0  0  0
0  0  0  1  0  0  0  0  0  0  0  0  0  0  0  0  0
639  631  629  625  620  616  610  603  595  585  575  562
549  535  518  499  480  458  436  413  389  364  336  307
278  249  221  194  166  140  115  90  67  46  27  14  8
7  6  5  5  4  4  3  2  2  2  1  1  1  1  0  1  1  0  0
0  0  0  1  1  0  0  0  0  0  0  0  0  0  0  0  0
