IESNA:LM-63-2002
[TEST] LTL28646P4
[TESTDATE] 8/19/2015
[ISSUEDATE] 10/6/2015
[TESTLAB] SCALED PHOTOMETRY
[TESTMETHOD] 
[MANUFAC] Lithonia Lighting
[LUMCAT] DMW2 3000LM ND AFL MVOLT 30K 90CRI    
[LUMINAIRE] DMW2 L24 3000LM ND AFL MVOLT GZ1 30K 90CRI (GLEDS)
[LAMPCAT] 
[LAMP] LED
[BALLAST] LED DRIVER
[BALLASTCAT] 
[DISTRIBUTION] DIRECT, SC-0=1.25, SC-90=1.24
[_TOTALLUMINAIRELUMENS] 2755.8
[_LAMPPOSITION] 0 , 0
[_LAMPTYPE] LED
[_LAMPWATTAGE] 27.85
[_MOUNTING] 
[_FAMILY] DMW2 LED
[_PRODUCTID] 59c73ff1-4ffa-42fe-89f9-0976969f9bd8
TILT=NONE
1  -1  1.12826523545218  73  17  1  1  0.4  1.96  0.05
1  1  27.85
0  2.5  5  7.5  10  12.5  15  17.5  20  22.5  25  27.5  30
32.5  35  37.5  40  42.5  45  47.5  50  52.5  55  57.5  60
62.5  65  67.5  70  72.5  75  77.5  80  82.5  85  87.5  90
92.5  95  97.5  100  102.5  105  107.5  110  112.5  115
117.5  120  122.5  125  127.5  130  132.5  135  137.5  140
142.5  145  147.5  150  152.5  155  157.5  160  162.5  165  167.5  170  172.5  175  177.5  180
0  22.5  45  67.5  90  112.5  135  157.5  180  202.5  225  247.5  270  292.5  315  337.5  360
897  878  876  872  868  860  851  839  826  810  794  775
754  730  705  675  644  611  577  542  504  466  426  385
345  306  268  233  199  166  134  105  78  53  32  16  8
7  6  5  4  4  3  3  2  2  2  1  1  1  1  1  1  0  0  0
0  0  0  0  0  0  0  0  0  0  0  0  0  0  0  0  1
897  897  897  894  888  882  873  860  845  828  810  788
767  742  717  687  655  621  585  550  512  473  434  394
355  316  279  243  209  176  146  117  90  65  44  27  17
14  12  10  8  7  6  5  4  3  3  2  2  1  1  1  1  1  1
1  1  1  1  1  1  1  0  1  1  0  0  1  0  0  1  0  1
897  903  902  898  894  884  875  860  845  827  807  785
763  739  714  686  656  625  591  556  521  484  445  404
365  327  291  256  223  192  162  135  108  84  62  44
32  26  24  21  19  17  14  12  10  8  7  6  5  5  4  3
3  2  2  1  0  1  1  1  0  0  0  0  0  0  0  0  0  0  0
0  1
897  905  904  902  896  887  876  861  843  823  804  784
763  739  717  691  664  634  601  568  532  494  454  414
374  336  300  266  235  204  176  148  123  98  76  57
43  36  33  31  28  26  23  21  18  15  13  10  9  8  7
6  5  4  4  3  3  2  1  1  1  0  0  1  0  0  0  0  0  0
0  0  1
897  909  907  905  899  889  877  862  845  824  805  786
767  746  723  698  671  640  609  574  537  499  458  418
378  340  304  271  240  210  181  154  127  103  80  61
46  38  36  33  31  28  26  24  21  18  16  13  11  10  8
7  6  5  4  4  3  2  2  0  1  1  0  0  0  0  0  0  0  0
0  0  1
897  905  904  900  895  887  876  862  844  825  805  784
763  740  716  691  663  633  601  568  532  495  455  415
375  337  301  268  236  205  176  150  123  98  77  57
43  35  32  29  27  25  23  20  18  15  13  10  9  8  7
6  5  4  4  3  3  2  1  1  1  1  0  1  0  0  0  1  0  0
0  0  1
897  899  900  896  891  884  873  860  844  826  806  786
763  740  712  685  653  621  588  556  520  483  446  406
367  328  293  258  224  193  164  136  110  86  64  46
32  25  23  20  18  16  14  12  9  8  7  6  5  5  4  3  3
3  2  1  1  1  1  1  1  1  1  1  1  0  1  1  1  0  0  1
1
897  900  899  894  890  881  872  860  846  830  812  792
769  744  716  686  653  619  585  548  512  474  434  395
355  317  280  245  211  179  148  121  94  70  48  30  18
13  11  10  8  6  6  5  4  4  3  3  2  2  1  1  1  1  1
1  2  1  1  1  1  1  1  1  1  1  1  1  1  1  1  1  1
897  876  873  866  860  852  841  828  813  798  779  759
737  712  685  655  624  591  557  520  482  443  402  363
323  286  250  215  181  150  119  92  66  44  25  12  7
6  5  5  4  3  3  3  2  2  2  2  1  1  1  1  1  1  1  1
1  1  1  1  1  1  1  0  0  0  0  0  0  0  0  0  1
897  895  890  886  879  866  853  841  823  805  784  762
737  710  681  649  617  582  546  508  469  429  390  351
314  275  239  206  174  143  116  89  65  44  27  15  12
10  9  7  6  5  4  4  3  3  2  2  1  1  1  1  0  0  1  1
0  1  0  0  0  0  0  1  0  1  1  1  1  1  1  0  1
897  898  891  886  875  862  849  832  814  792  771  747
722  695  667  636  605  571  535  498  460  421  381  343
306  269  235  202  172  144  118  93  70  50  35  25  22
20  18  16  14  12  10  8  7  6  5  5  4  4  3  3  2  1
1  1  0  0  0  0  0  0  0  0  0  0  0  0  0  0  1  0  1
897  901  893  886  873  861  844  827  808  788  766  745
721  695  669  638  606  571  535  495  456  415  375  338
302  267  235  205  176  148  123  98  75  56  41  32  29
27  26  23  21  20  17  15  13  11  9  8  7  6  5  5  4
3  3  2  1  1  0  0  0  0  0  0  0  0  0  1  1  0  0  0
1
897  904  896  887  874  861  843  825  805  786  766  745
721  696  669  638  605  570  532  493  452  412  374  336
301  266  235  205  176  149  124  98  77  57  43  34  31
30  28  26  25  23  21  19  16  14  12  10  8  7  7  5  4
4  3  3  2  2  1  0  0  0  0  0  0  0  0  1  0  0  1  0
1
897  899  893  885  874  860  844  827  807  787  765  743
718  694  666  637  604  569  532  493  454  413  374  336
300  265  233  203  174  147  121  97  74  55  41  32  30
28  26  24  22  20  18  16  13  11  9  8  7  6  6  5  4
3  3  3  1  1  1  0  0  0  0  0  0  0  1  1  1  0  0  0
1
897  898  892  886  876  864  849  833  814  793  771  747
720  695  666  635  604  570  535  497  458  418  378  340
304  267  232  201  171  142  115  90  68  48  33  25  23
21  18  16  14  13  10  9  7  6  5  5  4  4  3  3  2  2
1  1  0  0  0  0  0  0  0  1  0  1  1  1  1  1  1  0  1
897  897  891  885  877  866  854  839  823  805  785  762
735  707  679  647  614  580  543  504  465  425  386  347
309  272  236  202  170  139  111  84  60  40  24  14  12
11  9  7  6  5  5  4  3  3  3  2  1  1  1  1  1  0  1  1
0  0  0  1  0  0  0  1  1  1  1  1  1  1  1  0  1
897  878  876  872  868  860  850  839  826  810  794  774
754  729  705  675  644  611  577  541  504  465  426  385
346  306  268  233  198  166  135  105  78  53  32  16  8
7  6  5  4  4  3  3  2  2  2  1  1  1  1  1  0  0  0  0
0  0  0  0  0  0  0  0  0  0  0  1  0  0  1  0  1
