IESNA:LM-63-2002
[TEST] LTL28663P20
[TESTDATE] 8/24/2015
[ISSUEDATE] 10/6/2015
[TESTLAB] SCALED PHOTOMETRY
[TESTMETHOD] 
[MANUFAC] Lithonia Lighting
[LUMCAT] DMW2 2000LM WD ACL MVOLT 50K 90CRI    
[LUMINAIRE] DMW2 L24 2000LM WD ACL MVOLT GZ1 50K 90CRI (GLEDS)
[LAMPCAT] 
[LAMP] LED 
[BALLAST] LED DRIVER
[BALLASTCAT] 
[DISTRIBUTION] DIRECT, SC-0=1.29, SC-90=1.38
[_TOTALLUMINAIRELUMENS] 2016.5
[_LAMPPOSITION] 0 , 0
[_LAMPTYPE] LED
[_LAMPWATTAGE] 18.78
[_MOUNTING] 
[_FAMILY] DMW2 LED
[_PRODUCTID] 2b2dd53a-3418-41d2-a12e-b7ef79057dfe
TILT=NONE
1  -1  0.861983431952663  73  17  1  1  0.42  2.02  0
1  1  18.78
0  2.5  5  7.5  10  12.5  15  17.5  20  22.5  25  27.5  30
32.5  35  37.5  40  42.5  45  47.5  50  52.5  55  57.5  60
62.5  65  67.5  70  72.5  75  77.5  80  82.5  85  87.5  90
92.5  95  97.5  100  102.5  105  107.5  110  112.5  115
117.5  120  122.5  125  127.5  130  132.5  135  137.5  140
142.5  145  147.5  150  152.5  155  157.5  160  162.5  165  167.5  170  172.5  175  177.5  180
0  22.5  45  67.5  90  112.5  135  157.5  180  202.5  225  247.5  270  292.5  315  337.5  360
596  597  600  596  593  588  576  573  566  555  544  529
516  505  488  471  450  434  414  390  370  348  319  296
268  235  208  181  152  122  94  69  47  29  17  8  5  5
4  4  3  2  2  2  1  2  1  1  1  1  1  1  0  1  0  0  1
0  0  1  0  0  0  0  0  0  0  0  0  0  1  1  0
596  598  598  593  587  583  576  568  558  551  544  531
518  503  487  471  455  438  420  402  384  369  353  333
316  297  282  266  256  228  201  172  138  103  57  28
20  23  16  12  9  7  5  5  4  4  3  3  3  2  2  1  1  1
1  1  0  0  0  0  0  0  0  0  0  0  1  1  1  0  0  0  0
596  600  599  594  591  586  584  577  569  557  545  534
524  513  503  491  479  468  462  459  458  461  464  457
453  447  439  441  415  365  305  261  169  107  87  33
24  43  31  25  18  12  8  8  7  7  5  4  3  3  2  1  1
1  1  0  0  0  0  0  0  0  0  0  0  0  0  0  0  0  0  0
0
596  598  596  595  593  591  587  579  570  560  551  541
535  527  519  516  517  522  533  547  554  564  577  577
588  596  586  546  453  407  361  212  166  137  73  27
23  31  47  28  23  25  11  8  9  6  4  5  3  3  2  2  1
1  1  0  0  0  0  0  0  0  0  0  0  0  0  0  0  0  0  0
0
596  594  591  590  586  583  581  573  564  552  550  546
536  530  530  533  540  552  570  580  590  615  620  621
645  667  572  564  462  436  382  199  171  144  66  24
20  27  40  34  20  23  13  9  7  9  4  4  3  3  2  2  1
1  1  1  1  0  0  0  0  0  0  0  0  0  0  0  0  0  0  0
0
596  595  592  592  590  589  585  575  566  558  549  541
535  525  517  514  516  520  531  546  550  558  573  575
578  592  586  538  470  407  364  242  165  137  91  33
25  32  48  26  22  25  12  9  9  7  5  5  4  3  3  2  1
1  1  1  1  0  0  0  0  0  0  0  0  0  0  0  0  0  0  0
0
596  596  598  593  589  583  580  571  565  552  541  531
520  511  499  488  476  464  457  454  451  452  455  454
444  441  432  418  410  374  313  263  200  109  87  36
23  29  26  22  18  10  8  8  6  6  5  5  4  3  3  2  2
2  2  1  1  1  0  0  0  0  0  0  0  0  0  0  0  0  0  0
0
596  594  597  592  586  581  572  564  553  545  539  527
515  499  485  468  451  433  415  396  382  365  344  324
306  290  278  262  245  220  195  167  137  101  65  32
15  15  15  10  7  5  4  3  3  3  3  3  3  3  2  2  2  1
2  1  1  1  1  1  1  1  1  1  1  0  1  1  1  0  1  0  0
596  598  596  593  589  581  572  569  561  550  537  520
510  496  478  457  439  421  400  378  356  324  301  270
247  216  186  157  130  101  75  53  34  20  10  5  3  3
3  2  2  1  1  1  1  1  1  1  1  1  1  1  0  0  1  1  0
0  0  0  1  0  1  0  0  0  1  1  1  1  0  0  0
596  598  595  591  586  581  572  563  557  549  539  526
512  497  480  464  445  427  413  396  379  355  333  317
300  288  277  258  235  207  179  147  109  72  41  18
18  17  12  8  6  5  4  3  2  3  3  3  2  2  1  2  1  1
1  1  1  1  1  0  0  0  0  0  0  0  1  0  0  1  1  0  0
596  599  597  595  590  587  582  575  563  549  536  529
521  508  494  480  469  462  460  461  466  472  472  474
464  451  441  431  377  314  261  201  123  88  43  26
25  46  21  27  11  8  7  5  6  6  4  4  3  3  3  3  2  2
1  1  0  0  0  0  0  0  0  0  0  0  0  0  0  0  0  0  0
596  596  595  595  595  592  583  572  564  560  552  541
531  522  519  521  533  551  565  578  591  599  605  613
629  599  530  459  411  361  252  173  150  80  35  28
30  54  36  22  28  14  10  10  6  6  5  5  3  3  2  2  1
1  1  1  1  0  0  0  0  0  0  0  0  0  0  0  0  0  0  0
0
596  593  592  592  590  586  579  569  563  560  551  539
532  531  537  552  570  592  611  627  641  652  659  678
680  580  551  456  430  346  208  184  150  57  21  22
27  48  45  23  25  17  10  8  8  5  3  4  3  2  2  2  1
1  1  1  0  0  0  0  0  0  0  0  0  0  0  0  0  0  0  0
0
596  597  597  596  594  593  583  574  565  560  551  541
530  522  519  523  535  550  566  585  591  600  603  615
626  581  527  445  400  341  231  166  142  62  24  24
30  54  29  23  27  12  9  10  5  5  4  4  3  2  2  2  1
1  1  1  0  0  0  0  0  0  0  0  0  0  0  0  0  0  0  0
0
596  600  597  593  588  587  583  576  563  551  539  532
523  509  496  483  472  466  467  470  472  477  479  477
468  462  452  419  371  300  253  175  119  81  32  25
41  30  25  19  11  10  6  6  6  6  4  3  3  2  2  2  1
1  0  0  0  0  0  0  0  0  0  0  0  0  0  0  0  0  0  0
0
596  598  594  588  585  578  570  562  555  548  537  526
511  497  478  463  443  430  416  396  379  359  340  322
306  294  277  265  237  210  181  144  102  61  30  18
22  17  12  9  6  6  5  4  3  4  3  3  2  1  1  1  0  0
0  0  0  0  0  0  0  0  0  0  0  1  1  0  0  0  1  0  0
596  598  600  596  593  589  576  573  566  555  544  529
516  505  488  470  450  434  414  390  370  348  319  295
268  235  208  181  152  122  94  69  47  29  17  8  5  5
4  4  3  3  2  2  1  2  1  1  1  1  1  1  0  1  0  0  1
0  1  0  0  0  0  0  0  0  0  0  0  0  1  1  0
