IESNA:LM-63-2002
[TEST] LTL28611P16
[TESTDATE] 8/5/2015
[ISSUEDATE] 10/6/2015
[TESTLAB] SCALED PHOTOMETRY
[TESTMETHOD] 
[MANUFAC] Lithonia Lighting
[LUMCAT] DMW2 3000LM MD ACL MVOLT 40K 90CRI    
[LUMINAIRE] DMW2 L24 3000LM MD ACL MVOLT GZ1 40K 90CRI (GLEDS)
[LAMPCAT] 
[LAMP] LED
[BALLAST] LED DRIVER
[BALLASTCAT] 
[DISTRIBUTION] DIRECT, SC-0=1.27, SC-90=1.38
[_TOTALLUMINAIRELUMENS] 3090
[_LAMPPOSITION] 0 , 0
[_LAMPTYPE] LED
[_LAMPWATTAGE] 27.85
[_MOUNTING] 
[_FAMILY] DMW2 LED
[_PRODUCTID] a0203c93-b28d-4d4d-abde-ad9a135ca178
TILT=NONE
1  -1  1.18285871458696  73  17  1  1  0.42  1.92  0
1  1  27.85
0  2.5  5  7.5  10  12.5  15  17.5  20  22.5  25  27.5  30
32.5  35  37.5  40  42.5  45  47.5  50  52.5  55  57.5  60
62.5  65  67.5  70  72.5  75  77.5  80  82.5  85  87.5  90
92.5  95  97.5  100  102.5  105  107.5  110  112.5  115
117.5  120  122.5  125  127.5  130  132.5  135  137.5  140
142.5  145  147.5  150  152.5  155  157.5  160  162.5  165  167.5  170  172.5  175  177.5  180
0  22.5  45  67.5  90  112.5  135  157.5  180  202.5  225  247.5  270  292.5  315  337.5  360
899  885  880  877  872  865  854  843  828  814  798  782
763  744  723  699  673  648  620  592  561  542  498  452
418  380  338  282  242  200  150  106  74  41  21  11  7
7  7  6  5  4  4  3  4  3  3  2  2  2  2  1  1  1  1  1
1  1  0  1  1  0  1  1  1  1  0  1  1  1  1  1  1
899  895  891  886  879  871  863  855  840  824  808  791
773  751  731  707  681  655  629  595  564  537  506  504
463  360  324  286  267  207  130  100  67  46  24  14  10
9  8  7  7  6  5  5  5  3  3  3  2  2  1  1  1  1  1  1
1  1  0  1  1  1  1  1  1  1  1  1  1  1  1  1  1
899  897  894  890  884  877  867  856  845  829  814  797
778  760  738  711  731  726  637  574  566  525  515  537
428  362  284  273  241  187  135  100  75  53  36  21  17
14  12  12  10  10  10  10  12  9  7  7  6  5  5  3  5  4
2  1  1  1  0  1  1  1  1  1  1  1  1  1  1  1  1  1  1
899  897  897  893  886  880  871  862  848  833  817  799
778  799  808  719  661  646  622  611  665  556  471  405
365  371  338  282  209  165  134  102  86  64  38  28  21
16  14  13  13  11  10  11  12  12  12  13  10  9  8  7
7  7  6  5  3  2  1  1  1  1  0  1  1  1  1  1  1  1  1
1  1
899  909  907  904  897  889  880  867  854  841  824  802
807  840  748  686  672  650  632  717  601  508  443  392
406  384  333  255  210  159  139  101  90  65  38  27  21
17  14  12  12  12  11  11  12  10  13  13  12  10  9  8
8  7  7  7  5  4  2  1  1  1  0  1  1  1  1  1  1  1  1
1  1
899  902  902  895  893  887  876  866  855  839  824  807
788  803  810  722  664  651  630  614  656  563  472  406
370  374  341  289  219  175  140  103  86  65  40  28  22
17  14  13  13  12  11  10  12  12  13  12  10  9  8  7
8  7  7  5  5  3  1  1  1  1  0  1  1  1  1  1  1  1  1
1  1
899  901  899  894  886  881  874  864  851  836  817  801
785  764  737  712  739  734  639  582  558  534  525  520
434  351  291  276  236  188  133  100  74  51  36  21  17
14  12  10  12  10  10  11  11  10  8  7  6  6  5  5  5
4  2  2  1  1  1  1  1  1  0  1  1  1  1  1  1  1  1  1
1
899  900  899  894  888  878  868  858  845  832  818  800
781  759  740  717  685  657  648  601  574  537  497  525
461  374  322  279  264  206  131  99  63  45  22  14  10
8  8  7  7  6  5  4  4  3  3  4  3  2  2  2  2  2  2  2
2  2  1  1  1  1  1  1  1  1  1  1  1  1  1  1  1
899  886  883  878  872  862  853  840  827  813  798  781
764  744  718  694  670  655  601  575  545  506  475  441
382  342  297  260  207  160  121  80  52  26  10  5  5
5  5  3  3  2  2  3  2  3  2  3  2  2  2  2  2  2  2  2
2  2  1  1  1  1  0  1  1  1  1  1  1  1  1  1  1
899  893  890  886  880  870  861  848  835  822  804  786
766  743  722  700  671  647  622  573  544  509  471  440
412  378  278  254  214  179  124  84  52  33  16  11  8
7  7  6  7  5  4  3  6  2  3  2  2  2  2  2  0  1  1  1
1  1  0  1  1  1  2  1  1  1  1  1  1  0  1  1  1
899  897  894  890  883  874  863  852  838  823  807  788
770  747  722  698  671  664  709  549  523  513  466  487
408  343  272  244  217  160  119  84  59  45  24  18  15
12  11  11  11  9  9  9  13  7  7  4  5  5  5  4  4  4  2
0  1  1  0  1  1  1  1  1  1  1  1  1  1  1  1  1  1
899  903  900  893  886  877  868  855  841  828  810  792
775  746  747  797  639  617  613  572  616  557  450  412
338  338  319  254  197  140  119  84  75  52  29  23  19
15  13  12  14  12  10  9  13  11  12  10  9  8  8  7  6
6  6  5  3  2  0  0  0  0  1  1  1  1  1  1  1  1  1  1
1
899  911  909  901  894  884  873  862  846  830  814  797
775  769  831  671  650  638  609  655  618  487  460  371
377  365  298  218  195  142  118  87  80  49  32  24  20
15  13  12  13  12  10  9  13  9  11  11  11  8  8  8  7
7  6  6  5  3  0  1  0  0  1  0  1  1  1  1  1  1  1  1
1
899  905  903  897  890  879  870  857  845  832  811  794
776  752  760  789  639  624  611  582  636  547  456  411
339  343  317  245  195  138  117  86  77  50  29  24  20
15  14  13  14  12  10  10  13  11  12  10  8  8  8  7  6
6  6  5  3  2  0  1  1  0  1  0  1  1  1  1  1  1  1  1
1
899  905  900  894  887  879  868  855  843  829  809  792
771  748  728  711  674  680  696  546  534  511  471  516
394  354  263  247  222  154  121  86  61  46  24  20  14
12  12  10  10  9  8  9  13  6  7  4  5  5  5  4  4  4  3
2  1  1  0  1  1  1  1  1  1  1  1  1  1  1  1  1  1
899  902  899  895  889  878  868  858  845  829  813  795
773  751  729  707  681  652  630  584  551  523  487  434
452  344  295  262  229  175  114  87  51  36  19  11  9
8  8  7  7  5  4  3  6  2  3  2  2  2  1  1  1  1  1  1
1  1  0  1  1  1  1  1  1  1  1  1  1  1  1  0  1
899  885  880  877  872  865  854  843  828  814  798  781
763  743  722  699  673  648  622  591  561  542  498  452
418  380  337  282  242  200  150  106  74  41  21  11  7
7  7  6  5  4  4  3  5  2  3  2  2  2  2  1  1  1  1  1
1  1  0  1  1  0  1  1  1  1  0  1  1  1  1  1  1
