IESNA:LM-63-2002
[TEST] LTL28608P2
[TESTDATE] 8/5/2015
[ISSUEDATE] 10/6/2015
[TESTLAB] SCALED PHOTOMETRY
[TESTMETHOD] 
[MANUFAC] Lithonia Lighting
[LUMCAT] DMW2 2000LM MD PFL MVOLT 30K 90CRI    
[LUMINAIRE] DMW2 L24 2000LM MD PFL MVOLT GZ1 30K 90CRI (GLEDS)
[LAMPCAT] 
[LAMP] LED
[BALLAST] LED DRIVER
[BALLASTCAT] 
[DISTRIBUTION] DIRECT, SC-0=1.18, SC-90=1.19
[_TOTALLUMINAIRELUMENS] 1738.5
[_LAMPPOSITION] 0 , 0
[_LAMPTYPE] LED
[_LAMPWATTAGE] 18.78
[_MOUNTING] 
[_FAMILY] DMW2 LED
[_PRODUCTID] c09a754a-56d1-4726-bcc9-ca0af76c103c
TILT=NONE
1  -1  0.783621301775148  73  17  1  1  0.42  1.92  0
1  1  18.78
0  2.5  5  7.5  10  12.5  15  17.5  20  22.5  25  27.5  30
32.5  35  37.5  40  42.5  45  47.5  50  52.5  55  57.5  60
62.5  65  67.5  70  72.5  75  77.5  80  82.5  85  87.5  90
92.5  95  97.5  100  102.5  105  107.5  110  112.5  115
117.5  120  122.5  125  127.5  130  132.5  135  137.5  140
142.5  145  147.5  150  152.5  155  157.5  160  162.5  165  167.5  170  172.5  175  177.5  180
0  22.5  45  67.5  90  112.5  135  157.5  180  202.5  225  247.5  270  292.5  315  337.5  360
824  815  812  805  796  786  772  758  739  719  697  674
649  622  594  565  536  506  474  444  414  382  351  319
291  261  231  203  175  148  121  96  70  50  29  15  7
6  5  4  5  3  3  3  2  2  2  1  2  1  1  1  1  1  1  1
1  1  0  1  1  1  1  1  1  1  1  1  1  1  1  1  0
824  817  814  807  800  789  776  761  744  722  701  676
652  625  597  569  539  509  476  446  417  386  356  326
296  267  239  212  184  157  132  108  84  65  45  30  19
17  14  10  9  7  6  5  5  3  3  2  2  1  1  1  1  1  1
1  1  1  0  1  1  1  1  1  1  1  1  1  1  1  1  1  0
824  822  817  812  804  795  780  764  745  726  703  678
653  626  599  573  544  512  485  455  428  397  369  340
313  284  257  229  203  177  152  128  107  85  66  52
40  35  31  27  24  19  16  13  11  9  8  7  7  5  4  4
2  2  1  1  0  0  0  0  0  0  0  0  0  0  0  0  0  0  0
0  0
824  825  821  815  806  796  781  765  747  726  702  679
656  630  604  576  549  520  493  465  436  409  380  353
326  299  273  248  220  197  171  145  125  104  84  68
56  50  44  39  35  30  27  24  20  17  14  10  11  9  8
6  6  5  4  2  2  1  0  0  0  0  0  0  0  0  0  0  0  0
0  0  0
824  833  829  823  811  800  785  769  751  729  708  684
660  634  608  581  553  526  497  469  441  415  386  357
332  305  279  254  229  204  178  155  132  111  91  75
63  54  50  43  40  35  31  26  24  20  17  14  12  10  9
7  6  5  4  4  2  2  1  0  0  0  0  0  0  0  0  0  0  0
0  0  0
824  828  824  816  809  798  785  768  748  729  709  684
659  632  608  579  552  525  496  468  438  412  383  354
327  301  273  249  222  197  171  148  126  104  85  68
57  50  44  39  34  29  27  24  20  16  14  11  10  8  7
6  5  4  4  2  2  1  0  0  0  0  0  0  0  0  0  0  0  0
0  0  0
824  825  822  815  806  795  780  767  748  728  706  682
658  631  602  574  547  518  490  458  431  401  372  343
315  287  260  233  206  181  156  131  108  88  67  51
41  35  31  26  23  19  16  13  10  9  7  6  6  5  4  3
3  2  1  0  0  0  0  0  0  0  0  0  0  0  0  0  0  0  0
0  0
824  825  821  815  807  795  783  766  748  729  707  682
657  629  602  574  543  514  484  454  423  392  361  333
302  273  245  217  189  161  137  110  89  68  49  33  21
17  15  10  9  7  6  5  4  3  2  2  2  1  1  1  1  0  0
0  0  0  0  0  1  0  0  0  0  0  0  0  0  0  0  0  0
824  814  808  800  792  780  766  751  732  713  690  664
641  614  586  557  526  495  466  433  402  370  339  307
277  246  218  191  163  137  111  86  63  42  24  12  7
6  6  5  4  2  3  2  2  2  1  1  1  1  1  1  1  0  1  1
1  1  1  1  1  0  0  0  0  0  0  0  0  1  1  1  0
824  820  815  809  799  789  774  758  741  719  696  672
646  619  590  561  530  498  468  437  405  375  343  314
283  255  226  200  173  147  122  100  77  56  39  25  18
15  11  10  9  6  5  5  4  3  2  2  3  0  1  0  1  0  0
1  1  1  0  0  0  0  0  0  0  0  1  1  1  0  0  1  0
824  823  819  812  801  789  775  760  741  719  696  672
646  619  592  562  532  502  473  443  413  383  353  324
295  270  242  216  191  166  141  119  96  77  59  45  37
33  27  24  22  18  14  12  9  8  7  6  7  5  4  4  3  2
1  1  0  0  0  0  0  0  0  0  0  0  0  0  0  0  0  0  0
824  827  823  815  805  793  779  761  742  720  698  675
647  621  595  566  538  509  479  450  422  392  365  337
308  283  255  229  204  181  157  135  111  93  75  61
52  45  40  36  34  27  24  22  18  15  12  10  11  8  7
6  5  5  4  2  2  1  0  0  0  0  0  0  0  0  0  0  0  0
0  0  0
824  833  830  821  810  798  785  766  745  725  701  676
650  624  599  570  542  513  482  454  427  399  370  342
315  289  262  236  211  186  161  141  117  99  79  67
58  52  45  41  38  33  30  25  21  18  15  13  13  10  9
8  7  5  5  4  3  2  0  0  0  0  0  0  0  0  0  0  0  0
0  0  0
824  830  827  816  808  795  778  763  744  723  699  674
648  622  594  568  537  510  479  451  422  394  365  337
308  282  256  230  204  179  156  134  112  92  74  60
52  45  40  36  34  28  24  21  18  15  12  10  11  8  7
6  5  5  3  4  2  2  0  0  0  0  0  0  0  0  0  0  0  0
0  0  0
824  828  824  816  806  795  779  763  744  722  699  674
649  620  592  563  534  503  473  443  412  383  353  324
295  267  240  214  187  163  138  115  94  74  56  44  36
32  27  24  21  17  13  12  9  8  7  6  7  5  4  4  3  3
2  1  0  0  0  0  0  0  0  0  0  0  0  0  0  0  0  0  0
824  827  823  817  808  795  780  764  745  724  700  675
650  624  595  564  533  501  470  438  406  375  343  314
282  254  226  196  170  142  117  95  73  53  36  23  18
15  11  9  8  6  5  4  4  2  2  2  3  1  1  1  1  1  1  1
1  1  0  1  0  0  0  0  0  1  1  1  1  0  1  1  0
824  815  812  805  796  786  772  758  738  719  697  674
649  622  594  565  536  506  474  444  414  382  351  319
290  261  231  203  175  148  121  97  70  50  29  15  7
6  5  4  6  3  3  3  2  2  2  1  3  1  1  1  1  1  1  1
1  1  0  1  1  1  1  1  1  1  1  1  1  1  1  1  0
