IESNA:LM-63-2002
[TEST] LTL28609P1
[TESTDATE] 8/5/2015
[ISSUEDATE] 10/6/2015
[TESTLAB] SCALED PHOTOMETRY
[TESTMETHOD] 
[MANUFAC] Lithonia Lighting
[LUMCAT] DMW2 2000LM MD AFL MVOLT 30K 80CRI    
[LUMINAIRE] DMW2 L24 2000LM MD AFL MVOLT GZ1 30K 80CRI (GLEDS)
[LAMPCAT] 
[LAMP] LED
[BALLAST] LED DRIVER
[BALLASTCAT] 
[DISTRIBUTION] DIRECT, SC-0=1.24, SC-90=1.24
[_TOTALLUMINAIRELUMENS] 2419.1
[_LAMPPOSITION] 0 , 0
[_LAMPTYPE] LED
[_LAMPWATTAGE] 18.78
[_MOUNTING] 
[_FAMILY] DMW2 LED
[_PRODUCTID] a1d42a6a-d851-4a86-b1b2-461b40e82073
TILT=NONE
1  -1  0.953846153846154  73  17  1  1  0.42  1.92  0
1  1  18.78
0  2.5  5  7.5  10  12.5  15  17.5  20  22.5  25  27.5  30
32.5  35  37.5  40  42.5  45  47.5  50  52.5  55  57.5  60
62.5  65  67.5  70  72.5  75  77.5  80  82.5  85  87.5  90
92.5  95  97.5  100  102.5  105  107.5  110  112.5  115
117.5  120  122.5  125  127.5  130  132.5  135  137.5  140
142.5  145  147.5  150  152.5  155  157.5  160  162.5  165  167.5  170  172.5  175  177.5  180
0  22.5  45  67.5  90  112.5  135  157.5  180  202.5  225  247.5  270  292.5  315  337.5  360
906  894  891  887  879  871  861  846  831  816  798  778
752  728  702  673  642  607  573  539  502  462  424  386
345  307  272  235  201  167  135  108  80  56  35  19  10
8  7  6  5  4  3  4  3  2  2  2  2  1  1  1  1  1  1  1
1  1  1  1  1  1  1  1  1  1  1  1  1  1  1  1  0
906  902  898  893  886  877  867  854  837  820  801  781
757  733  702  674  644  611  574  540  503  463  427  388
350  314  277  244  211  181  150  121  95  73  51  35  23
19  16  13  10  8  7  6  5  3  3  3  2  2  1  1  1  1  1
1  1  1  1  1  1  1  1  1  1  0  1  1  1  1  0  1  0
906  903  900  896  889  880  869  856  839  822  801  780
756  731  704  674  644  611  576  543  506  472  436  399
364  329  292  259  227  197  168  141  115  92  71  54
41  35  30  26  22  19  16  14  11  9  9  8  7  6  5  4
4  3  1  1  0  1  1  1  1  0  0  0  0  0  0  0  0  0  0
0  0
906  906  904  896  888  883  871  858  840  824  803  781
757  732  705  675  646  613  580  547  511  477  440  405
368  333  300  269  237  208  180  153  126  105  82  67
53  45  38  33  30  27  23  22  20  17  14  13  11  10  9
8  6  6  5  2  3  1  0  0  0  0  0  0  0  0  0  0  0  0
0  0  0
906  915  913  908  899  890  878  863  846  829  807  784
760  733  707  677  646  617  584  550  514  478  441  405
371  336  304  272  241  212  183  158  133  109  87  70
55  46  40  34  32  29  25  23  22  19  17  14  13  11  10
9  8  6  5  5  4  2  1  0  0  0  0  0  0  0  0  0  0  0
0  0  0
906  911  908  901  895  888  874  861  846  829  808  785
762  736  709  680  648  616  584  549  515  480  443  407
371  336  301  269  238  208  180  153  128  104  83  66
52  44  38  33  30  26  24  21  19  16  14  13  11  10  9
8  6  6  5  2  3  2  0  0  0  0  0  0  0  0  0  0  0  0
0  0  0
906  906  905  899  892  882  872  858  844  826  804  783
760  734  708  678  646  614  581  548  512  474  439  401
364  329  295  261  227  197  167  140  115  92  71  54
41  34  29  25  22  19  16  13  11  10  8  8  7  6  5  4
3  3  2  1  1  1  1  1  1  1  1  0  0  0  0  0  0  0  0
0  0
906  907  903  899  892  883  871  857  844  826  805  784
762  736  709  679  648  615  580  544  507  470  431  391
354  315  281  247  211  179  151  123  96  73  52  35  23
17  14  11  9  6  6  5  5  3  3  2  2  2  1  1  1  1  1
1  1  1  1  1  1  1  1  1  1  1  1  1  1  1  1  1  0
906  893  890  884  877  867  855  842  829  813  793  771
748  721  696  666  633  597  560  525  485  446  404  362
325  287  250  214  184  151  122  95  70  46  27  14  7
6  6  5  4  4  3  3  3  2  2  2  2  2  1  1  1  1  1  1
1  1  1  1  1  1  1  1  1  1  1  1  1  1  1  1  0
906  901  898  893  883  874  864  851  835  817  797  774
752  725  696  667  633  600  563  525  487  446  408  369
332  295  258  228  194  165  136  109  84  63  43  29  20
17  14  11  9  7  6  5  4  4  3  3  2  1  0  1  1  1  1
1  1  1  1  1  1  0  0  1  1  1  1  1  1  1  1  1  0
906  904  900  895  886  876  865  852  836  818  796  774
750  724  695  663  632  598  565  527  491  454  417  380
344  309  275  241  211  182  153  126  102  81  63  48
38  31  28  24  20  18  16  12  11  10  9  8  7  4  4  3
3  3  3  2  1  1  1  1  0  0  0  0  0  0  1  0  1  1  0
0  0
906  906  902  896  887  877  865  851  835  816  797  772
745  722  693  663  632  600  565  530  495  459  424  387
352  317  283  251  222  192  164  140  115  93  74  58
48  41  36  32  29  26  23  20  19  17  14  12  12  10  9
7  6  5  4  4  3  3  1  0  0  0  0  0  0  0  0  0  0  0
0  0  0
906  915  911  905  895  886  873  857  841  820  800  776
752  726  698  669  637  604  570  535  498  462  426  388
354  319  285  255  225  197  168  144  118  96  77  61
51  43  38  35  32  28  26  24  21  19  17  14  13  11  10
9  7  7  5  4  4  2  2  1  0  0  0  0  0  0  0  0  0  0
0  0  0
906  911  909  902  892  883  870  855  839  820  798  774
753  725  696  666  635  601  566  532  497  461  422  387
352  317  283  251  221  193  165  139  114  92  73  56
48  41  36  32  29  26  23  20  19  16  14  13  11  9  9
7  7  6  5  4  3  2  1  0  0  0  0  0  0  0  0  0  0  0
0  0  0
906  908  903  896  890  879  868  854  838  819  800  775
752  723  695  665  633  598  562  529  491  455  416  381
345  310  275  241  210  181  153  127  101  80  60  46
38  32  27  23  20  17  16  12  11  9  9  8  6  6  4  5
3  3  3  1  1  1  1  0  0  0  0  0  0  0  0  0  0  0  0
0  0
906  905  903  899  890  881  867  855  839  820  804  781
757  731  700  669  637  600  564  525  487  448  408  369
332  294  259  225  192  163  134  107  82  60  42  27  20
15  12  11  9  7  6  5  5  4  3  3  2  1  1  1  1  1  1
1  1  1  1  1  1  0  0  0  0  0  1  1  1  1  0  0  0
906  894  891  887  879  871  860  846  831  816  798  778
752  728  702  673  642  607  573  539  502  462  424  386
345  307  272  235  201  168  135  108  80  56  35  19  10
8  7  6  5  4  3  4  3  2  2  2  2  1  1  1  1  1  1  1
1  1  1  1  1  0  1  1  1  1  1  1  1  1  1  1  0
