IESNA:LM-63-2002
[TEST] 501896SR1
[TESTDATE] 5/15/2013
[ISSUEDATE] 6/10/2016
[TESTLAB] ACUITY BRANDS LIGHTING GRANVILLE LAB
[TESTMETHOD] IES LM-79-08
[MANUFAC] Lithonia Lighting
[LUMCAT] MSLR 4L LP850
[LUMINAIRE] LED LOW BAY INDUSTRIAL RETROFIT KIT, 4FT LONG, MIRO 5 REFLECTOR, AND DIFFUSE ACRYLIC LENS, 4100 NOMINAL LUMENS, 5000K LEDS
[LAMPCAT] LED LINEAR ARRAY
[LAMP] Nichia 757 5000K 80+ CRI
[BALLAST] 120V Sawtooth
[BALLASTCAT] ELECTRONIC
[DISTRIBUTION] DIRECT, SC-0=1.24, SC-90=1.25
[_TOTALLUMINAIRELUMENS] 4108.9
[_LAMPPOSITION] 0 , 0
[_LAMPTYPE] LED
[_LAMPWATTAGE] 44.4
[_MOUNTING] Suspended
[_FAMILY] MSLR
[_PRODUCTID] 02419c13-5ef0-4824-af38-7e164ed0a9c7
[_ABSOLUTE] NOTE: DATA SHOWN IS ABSOLUTE FOR THE SAMPLE PROVIDED.
[_ABSOLUTELUMENS] 4107
[OTHER] LED Industrial strip luminaire with frosted acrylic lens
TILT=NONE
1  -1  1  73  37  1  1  0.67  4  0
1  1  44.5
0  2.5  5  7.5  10  12.5  15  17.5  20  22.5  25  27.5  30
32.5  35  37.5  40  42.5  45  47.5  50  52.5  55  57.5  60
62.5  65  67.5  70  72.5  75  77.5  80  82.5  85  87.5  90
92.5  95  97.5  100  102.5  105  107.5  110  112.5  115
117.5  120  122.5  125  127.5  130  132.5  135  137.5  140
142.5  145  147.5  150  152.5  155  157.5  160  162.5  165  167.5  170  172.5  175  177.5  180
0  5  10  15  20  25  30  35  40  45  50  55  60  65  70
75  80  85  90  95  100  105  110  115  120  125  130  135  140  145  150  155  160  165  170  175  180
1473  1468  1459  1451  1439  1420  1401  1381  1356  1325
1295  1262  1224  1182  1143  1097  1047  1000  951  893
838  786  729  667  612  554  491  431  371  309  249  192
138  88  45  15  1  0  0  0  0  0  0  0  0  0  0  0  1  0
1  1  1  1  1  1  1  1  1  1  1  1  1  1  1  1  1  1  1
1  1  1  1
1473  1463  1460  1445  1433  1420  1397  1375  1351  1326
1288  1260  1220  1182  1137  1096  1046  998  947  894
840  783  728  668  612  552  493  432  372  310  251  192
138  88  47  17  1  0  0  0  0  0  0  0  0  0  0  0  0  0
0  0  0  1  1  1  0  1  1  1  1  1  1  1  1  1  1  1  1
1  1  1  1
1473  1462  1459  1447  1437  1417  1403  1378  1354  1326
1297  1260  1227  1188  1144  1102  1054  1005  956  904
847  792  737  677  620  561  500  439  378  315  255  198
144  95  54  25  2  0  0  0  0  0  0  0  0  0  0  0  0  0
1  0  0  1  1  1  0  1  1  1  1  1  1  1  1  1  1  1  1
1  1  1  1
1473  1464  1462  1452  1436  1425  1405  1380  1359  1331
1299  1270  1232  1193  1154  1109  1060  1015  963  910
858  802  744  687  628  566  506  444  383  322  262  204
152  103  63  32  4  0  0  0  0  0  0  0  0  0  0  0  0
0  0  0  0  0  0  1  0  1  1  1  1  1  1  1  1  1  1  1
1  1  1  1  1
1473  1468  1461  1453  1440  1426  1408  1386  1363  1336
1307  1276  1241  1202  1163  1119  1072  1026  975  921
869  811  754  696  635  573  514  450  390  328  269  212
160  112  73  38  7  0  0  0  0  0  0  0  0  0  0  0  0
0  1  0  0  0  1  1  1  1  1  1  1  1  1  1  1  1  1  1
1  1  1  1  1
1473  1468  1462  1455  1442  1428  1410  1390  1368  1344
1312  1285  1240  1211  1173  1126  1082  1033  980  929
873  815  758  696  637  575  512  451  389  329  271  216
166  120  81  42  8  0  0  0  0  0  0  0  0  0  0  0  0
0  0  0  0  0  0  1  0  0  0  1  1  1  1  1  1  1  1  1
1  1  1  1  1
1473  1466  1467  1455  1443  1431  1415  1393  1376  1345
1321  1288  1257  1216  1180  1131  1088  1036  985  929
875  815  757  693  634  570  509  445  387  327  273  220
172  129  90  45  11  0  0  0  0  0  0  0  0  0  0  0  1
0  1  1  0  1  1  1  1  1  1  1  1  1  1  1  1  1  1  1
1  1  1  1  1
1473  1466  1464  1451  1444  1428  1415  1394  1376  1347
1326  1290  1261  1221  1183  1134  1090  1037  985  927
869  809  747  684  622  559  497  438  379  325  271  222
177  137  95  47  13  0  0  0  0  0  0  0  0  0  0  0  0
0  0  0  0  1  1  1  0  0  1  1  1  1  1  1  1  1  1  1
1  1  1  1  1
1473  1467  1463  1451  1447  1429  1417  1400  1378  1356
1329  1298  1267  1226  1186  1139  1088  1037  977  918
859  795  733  668  606  546  485  430  374  322  272  226
183  143  98  48  16  0  0  0  0  0  1  0  1  0  0  0  0
1  1  0  1  1  1  1  0  1  1  1  1  1  1  1  1  1  1  1
1  1  1  1  1
1473  1468  1466  1454  1448  1434  1419  1404  1383  1360
1335  1299  1270  1224  1183  1134  1081  1027  966  903
844  778  715  650  589  531  474  420  369  319  273  228
189  148  101  49  17  0  0  0  0  0  0  0  0  1  0  0  0
0  1  0  1  0  1  1  0  0  1  1  1  1  1  1  1  1  1  1
1  1  1  1  1
1473  1461  1462  1450  1444  1425  1418  1406  1382  1364
1335  1305  1269  1227  1182  1130  1075  1015  953  889
825  759  696  633  576  519  466  414  365  319  274  233
193  153  102  51  20  1  0  0  0  0  0  1  1  1  0  0  1
0  1  1  1  1  1  1  0  1  1  1  1  1  1  1  1  1  1  1
1  1  1  1  1
1473  1465  1465  1453  1450  1436  1425  1410  1388  1369
1337  1309  1265  1225  1174  1121  1064  1000  939  871
808  741  679  620  562  511  458  410  364  319  277  237
198  155  103  51  21  1  0  0  0  0  0  0  1  0  0  0  0
0  1  0  0  0  1  1  0  1  1  0  1  1  1  1  1  1  1  1
1  1  1  1  1
1473  1469  1459  1459  1446  1440  1425  1412  1391  1369
1341  1306  1267  1221  1169  1112  1053  989  922  857
789  726  664  608  553  503  454  408  363  321  279  242
202  157  104  53  22  2  0  0  0  0  0  0  1  0  1  0  1
1  1  1  1  1  1  1  1  1  1  1  1  1  1  1  1  1  1  1
1  1  1  1  1
1473  1466  1464  1456  1451  1439  1428  1412  1395  1370
1343  1306  1265  1216  1162  1104  1042  975  910  841
776  712  655  598  548  497  453  406  364  323  283  245
205  158  104  54  24  2  0  0  0  0  0  0  0  0  0  1  1
0  0  1  0  1  1  1  1  1  1  1  1  1  1  1  1  1  1  1
1  1  1  1  1
1473  1468  1461  1459  1447  1443  1429  1414  1398  1369
1345  1304  1263  1212  1154  1097  1029  966  897  828
765  701  647  592  542  495  449  407  365  325  286  248
208  158  105  54  25  2  0  0  0  0  0  0  0  1  1  1  1
1  1  1  0  1  1  1  1  1  1  1  1  1  1  1  1  1  1  1
1  1  1  1  1
1473  1468  1464  1460  1451  1445  1431  1419  1399  1374
1343  1308  1258  1209  1151  1087  1023  957  886  821
754  695  641  588  539  495  449  408  366  327  289  251
210  160  105  56  26  3  0  0  0  0  0  0  0  1  0  1  1
0  1  1  1  1  1  1  1  1  1  1  1  1  1  1  1  1  1  1
1  1  1  1  1
1473  1471  1464  1464  1455  1444  1437  1420  1400  1376
1346  1303  1260  1206  1147  1084  1017  948  879  814
748  691  635  586  537  493  449  409  368  329  291  252
211  160  105  56  26  3  0  0  0  0  0  0  0  1  1  1  1
1  1  1  1  1  1  1  1  1  1  1  1  1  1  1  1  1  1  1
1  1  1  1  1
1473  1472  1468  1460  1457  1447  1436  1421  1403  1376
1344  1307  1255  1205  1143  1080  1012  946  874  809
747  687  635  585  538  493  451  408  369  330  292  254
213  161  106  57  27  3  0  0  0  0  0  0  0  0  1  1  1
0  0  0  1  1  1  1  1  1  1  1  1  1  1  1  1  1  1  1
1  1  1  1  1
1473  1471  1470  1462  1458  1450  1437  1425  1401  1379
1344  1304  1256  1201  1142  1079  1009  945  871  808
742  687  632  584  536  492  448  409  367  331  292  255
213  161  106  57  27  3  0  0  0  0  1  0  0  1  1  1  1
1  1  1  1  1  1  1  1  1  1  1  1  1  1  1  1  1  1  1
1  1  1  1  1
1473  1475  1471  1464  1460  1449  1439  1424  1401  1381
1340  1309  1254  1206  1144  1081  1015  947  878  811
747  689  635  584  538  492  451  409  370  331  293  255
213  161  106  58  28  3  0  0  0  0  0  0  0  1  1  1  1
1  1  1  1  1  1  1  1  1  1  1  1  1  1  1  1  1  1  1
1  1  1  1  1
1473  1472  1466  1464  1452  1449  1433  1419  1402  1374
1344  1305  1256  1205  1147  1081  1019  948  883  814
751  691  637  587  540  494  450  408  368  330  292  254
212  161  106  57  27  3  0  1  0  1  1  0  0  1  1  1  1
1  1  1  1  1  1  1  1  1  1  1  1  1  1  1  1  1  1  1
1  1  1  1  1
1473  1470  1465  1460  1453  1445  1434  1417  1400  1372
1346  1303  1261  1207  1151  1089  1023  959  889  823
758  700  642  592  542  496  452  409  369  328  291  252
212  161  107  58  27  2  0  1  0  1  1  1  0  1  1  1  1
1  1  1  1  1  1  1  1  1  1  1  1  1  1  1  1  1  1  1
1  1  1  1  1
1473  1470  1465  1459  1452  1442  1432  1414  1399  1370
1344  1303  1262  1209  1155  1094  1031  966  899  832
766  707  648  596  546  499  453  409  368  328  289  249
209  160  106  57  27  2  1  1  0  1  1  1  1  1  1  1  1
1  1  1  1  1  1  1  1  1  1  1  1  1  1  1  1  1  1  1
2  1  1  1  1
1473  1468  1465  1460  1450  1444  1427  1417  1394  1373
1341  1306  1263  1214  1162  1102  1042  976  912  844
780  717  659  604  551  503  455  411  367  327  287  248
207  159  106  57  26  2  1  1  0  0  1  1  1  1  1  1  1
1  1  1  1  1  1  1  1  1  1  1  1  1  1  1  1  1  1  1
1  1  1  1  1
1473  1469  1465  1456  1452  1436  1429  1412  1392  1371
1338  1308  1264  1220  1168  1109  1053  986  925  858
794  732  669  614  558  508  459  412  369  325  285  244
204  158  105  55  25  1  1  1  1  1  1  1  1  1  1  1  1
1  1  1  1  1  1  1  1  1  1  1  1  1  1  1  1  1  2  1
2  1  2  2  1
1473  1470  1466  1455  1453  1435  1430  1409  1392  1369
1339  1307  1268  1222  1176  1119  1065  1002  940  877
811  748  686  625  570  515  465  415  369  325  282  242
201  157  105  55  24  1  1  1  1  1  1  1  1  1  1  1  1
1  1  1  1  1  1  1  1  1  1  1  1  1  1  1  1  1  1  1
1  1  1  2  1
1473  1472  1462  1458  1449  1436  1424  1407  1386  1364
1336  1302  1271  1222  1182  1128  1073  1016  954  891
831  765  703  641  581  527  471  421  372  324  281  239
197  155  104  54  23  1  1  1  1  1  1  1  1  1  1  1  1
1  1  1  1  1  1  1  1  1  1  1  1  1  1  1  1  2  2  1
2  2  2  2  1
1473  1474  1465  1462  1448  1440  1422  1409  1386  1365
1334  1308  1266  1231  1180  1135  1081  1025  967  907
845  786  719  660  596  541  482  428  376  326  279  236
193  152  102  53  22  1  1  1  1  1  1  1  1  1  1  1  1
1  1  1  1  1  1  1  1  1  1  1  1  1  1  1  1  2  2  1
2  1  2  2  1
1473  1472  1465  1459  1448  1436  1420  1403  1382  1357
1331  1299  1266  1228  1185  1138  1088  1036  979  920
861  799  739  675  613  554  494  438  382  330  279  233
189  146  101  51  19  1  1  1  1  1  1  1  2  1  1  1  1
1  1  1  1  1  1  2  1  1  2  1  1  2  2  2  2  2  2  2
2  2  2  2  1
1473  1472  1469  1459  1449  1434  1419  1400  1379  1354
1327  1296  1261  1224  1182  1138  1089  1039  983  929
871  812  751  690  630  567  507  446  389  333  280  230
184  141  97  49  17  1  1  1  1  1  1  1  1  1  1  1  1
1  1  1  1  1  1  2  1  1  1  2  1  2  1  2  2  2  2  2
2  2  2  2  1
1473  1477  1467  1463  1448  1437  1419  1400  1379  1351
1325  1291  1260  1218  1180  1135  1088  1040  985  933
876  819  759  699  640  578  517  454  395  336  280  228
179  135  93  48  15  1  1  1  1  1  1  1  1  1  1  1  2
1  2  2  1  2  2  2  1  1  2  2  2  2  2  2  2  2  2  2
2  2  2  2  1
1473  1473  1469  1459  1447  1433  1413  1397  1369  1347
1317  1286  1253  1213  1177  1128  1086  1034  984  930
876  819  762  702  643  579  521  457  398  337  279  223
173  127  85  44  12  1  1  1  1  1  1  1  1  1  1  1  1
1  1  1  1  1  2  2  1  2  2  1  2  2  2  2  2  2  2  2
2  2  2  2  1
1473  1474  1467  1456  1447  1428  1412  1392  1366  1341
1311  1279  1244  1205  1163  1124  1073  1030  976  926
871  816  757  700  639  580  518  457  395  335  275  219
165  118  77  40  9  1  1  1  1  1  1  1  1  1  1  1  2
1  2  2  2  2  2  2  2  2  2  2  2  2  2  2  2  2  2  2
2  2  2  2  1
1473  1471  1463  1452  1443  1424  1408  1383  1363  1329
1306  1269  1235  1196  1157  1112  1066  1020  966  917
861  807  748  692  632  572  512  450  388  327  268  210
156  108  67  34  7  1  1  1  1  1  1  1  1  1  1  1  1
2  2  2  2  2  2  2  1  2  2  2  2  2  2  2  2  2  2  2
2  2  2  2  1
1473  1467  1465  1452  1441  1424  1406  1384  1360  1331
1301  1267  1231  1194  1147  1108  1057  1011  961  905
856  796  742  684  626  567  505  445  382  321  261  203
149  100  58  27  5  1  1  1  1  1  1  1  1  1  1  2  2
2  2  2  2  2  2  2  2  2  2  2  2  2  2  2  2  2  2  2
2  2  2  2  1
1473  1464  1461  1448  1439  1418  1404  1378  1356  1325
1296  1261  1225  1185  1143  1099  1052  1004  954  900
848  790  736  676  619  557  499  437  376  315  255  197
143  93  50  21  3  1  1  1  1  1  1  1  1  1  2  1  2  2
2  2  2  2  2  2  2  2  2  2  2  2  2  2  2  2  2  2  2
2  2  2  1
1473  1458  1452  1441  1430  1412  1395  1370  1348  1317
1289  1251  1218  1174  1138  1088  1046  993  948  890
842  782  730  670  616  554  498  435  377  314  256  197
142  91  49  18  2  1  1  1  1  1  1  1  1  2  2  2  2  2
2  2  2  2  2  2  2  2  2  2  2  2  2  2  2  2  2  2  2
2  2  2  1
