IESNA:LM-63-2002
[TEST] 501896SR1
[TESTDATE] 5/15/2013
[ISSUEDATE] 6/10/2016
[TESTLAB] ACUITY BRANDS LIGHTING GRANVILLE LAB
[TESTMETHOD] IES LM-79-08
[MANUFAC] Lithonia Lighting
[LUMCAT] MSLR 4L LP840
[LUMINAIRE] LED LOW BAY INDUSTRIAL RETROFIT KIT, 4FT LONG, MIRO 5 REFLECTOR, AND DIFFUSE ACRYLIC LENS, 4100 NOMINAL LUMENS, 4000K LEDS
[LAMPCAT] LED LINEAR ARRAY
[LAMP] Nichia 757 4000K 80+ CRI
[BALLAST] 120V Sawtooth
[BALLASTCAT] ELECTRONIC
[DISTRIBUTION] DIRECT, SC-0=1.24, SC-90=1.25
[_TOTALLUMINAIRELUMENS] 4034.5
[_LAMPPOSITION] 0 , 0
[_LAMPTYPE] LED
[_LAMPWATTAGE] 44.4
[_MOUNTING] Suspended
[_FAMILY] MSLR
[_PRODUCTID] 92951363-b1bb-4957-8b33-4782d470770f
[_ABSOLUTE] NOTE: DATA SHOWN IS ABSOLUTE FOR THE SAMPLE PROVIDED.
[_ABSOLUTELUMENS] 4064
[_LAMPPOSITION] 0 , 0
[_TOTALLUMINAIRELUMENS] 4064
[OTHER] LED Industrial strip luminaire with frosted acrylic lens
[TESTMETHOD] IES LM- 79-08
TILT=NONE
1  -1  1  73  37  1  1  0.67  4  0
1  1  43.7
0  2.5  5  7.5  10  12.5  15  17.5  20  22.5  25  27.5  30
32.5  35  37.5  40  42.5  45  47.5  50  52.5  55  57.5  60
62.5  65  67.5  70  72.5  75  77.5  80  82.5  85  87.5  90
92.5  95  97.5  100  102.5  105  107.5  110  112.5  115
117.5  120  122.5  125  127.5  130  132.5  135  137.5  140
142.5  145  147.5  150  152.5  155  157.5  160  162.5  165  167.5  170  172.5  175  177.5  180
0  5  10  15  20  25  30  35  40  45  50  55  60  65  70
75  80  85  90  95  100  105  110  115  120  125  130  135  140  145  150  155  160  165  170  175  180
1446  1441  1433  1425  1413  1394  1376  1356  1331  1301
1272  1239  1202  1161  1122  1077  1028  982  934  877
823  772  716  655  601  544  482  423  364  303  244  189
136  86  44  15  1  0  0  0  0  0  0  0  0  0  0  0  1  0
1  1  1  1  1  1  1  1  1  1  1  1  1  1  1  1  1  1  1
1  1  1  1
1446  1436  1434  1419  1407  1394  1372  1350  1327  1302
1265  1237  1198  1161  1116  1076  1027  980  930  878
825  769  715  656  601  542  484  424  365  304  246  189
136  86  46  17  1  0  0  0  0  0  0  0  0  0  0  0  0  0
0  0  0  1  1  1  0  1  1  1  1  1  1  1  1  1  1  1  1
1  1  1  1
1446  1436  1433  1421  1411  1391  1378  1353  1329  1302
1274  1237  1205  1166  1123  1082  1035  987  939  888
832  778  724  665  609  551  491  431  371  309  250  194
141  93  53  25  2  0  0  0  0  0  0  0  0  0  0  0  0  0
1  0  0  1  1  1  0  1  1  1  1  1  1  1  1  1  1  1  1
1  1  1  1
1446  1437  1436  1426  1410  1399  1380  1355  1334  1307
1275  1247  1210  1171  1133  1089  1041  997  946  894
842  787  731  675  617  556  497  436  376  316  257  200
149  101  62  31  4  0  0  0  0  0  0  0  0  0  0  0  0
0  0  0  0  0  0  1  0  1  1  1  1  1  1  1  1  1  1  1
1  1  1  1  1
1446  1441  1435  1427  1414  1400  1382  1361  1338  1312
1283  1253  1219  1180  1142  1099  1053  1007  957  904
853  796  740  683  623  563  505  442  383  322  264  208
157  110  72  37  7  0  0  0  0  0  0  0  0  0  0  0  0
0  1  0  0  0  1  1  1  1  1  1  1  1  1  1  1  1  1  1
1  1  1  1  1
1446  1441  1436  1429  1416  1402  1384  1365  1343  1320
1288  1262  1218  1189  1152  1106  1062  1014  962  912
857  800  744  683  625  565  503  443  382  323  266  212
163  118  80  41  8  0  0  0  0  0  0  0  0  0  0  0  0
0  0  0  0  0  0  1  0  0  0  1  1  1  1  1  1  1  1  1
1  1  1  1  1
1446  1439  1440  1429  1417  1405  1389  1368  1351  1321
1297  1265  1234  1194  1159  1111  1068  1017  967  912
859  800  743  680  623  560  500  437  380  321  268  216
169  127  88  44  11  0  0  0  0  0  0  0  0  0  0  0  1
0  1  1  0  1  1  1  1  1  1  1  1  1  1  1  1  1  1  1
1  1  1  1  1
1446  1439  1437  1425  1418  1402  1389  1369  1351  1323
1302  1267  1238  1199  1162  1113  1070  1018  967  910
853  794  733  672  611  549  488  430  372  319  266  218
174  135  93  46  13  0  0  0  0  0  0  0  0  0  0  0  0
0  0  0  0  1  1  1  0  0  1  1  1  1  1  1  1  1  1  1
1  1  1  1  1
1446  1440  1436  1425  1421  1403  1391  1375  1353  1331
1305  1274  1244  1204  1165  1118  1068  1018  959  901
843  781  720  656  595  536  476  422  367  316  267  222
180  140  96  47  16  0  0  0  0  0  1  0  1  0  0  0  0
1  1  0  1  1  1  1  0  1  1  1  1  1  1  1  1  1  1  1
1  1  1  1  1
1446  1441  1439  1428  1422  1408  1393  1379  1358  1335
1311  1275  1247  1202  1162  1113  1061  1008  949  887
829  764  702  638  578  521  465  412  362  313  268  224
186  145  99  48  17  0  0  0  0  0  0  0  0  1  0  0  0
0  1  0  1  0  1  1  0  0  1  1  1  1  1  1  1  1  1  1
1  1  1  1  1
1446  1435  1436  1424  1418  1399  1392  1381  1357  1339
1311  1281  1246  1205  1161  1110  1056  997  936  873
810  745  683  622  566  510  458  407  358  313  269  229
190  150  100  50  20  1  0  0  0  0  0  1  1  1  0  0  1
0  1  1  1  1  1  1  0  1  1  1  1  1  1  1  1  1  1  1
1  1  1  1  1
1446  1438  1438  1427  1424  1410  1399  1384  1363  1344
1313  1285  1242  1203  1153  1101  1045  982  922  855
793  728  667  609  552  502  450  403  357  313  272  233
194  152  101  50  21  1  0  0  0  0  0  0  1  0  0  0  0
0  1  0  0  0  1  1  0  1  1  0  1  1  1  1  1  1  1  1
1  1  1  1  1
1446  1442  1433  1433  1420  1414  1399  1386  1366  1344
1317  1282  1244  1199  1148  1092  1034  971  905  841
775  713  652  597  543  494  446  401  356  315  274  238
198  154  102  52  22  2  0  0  0  0  0  0  1  0  1  0  1
1  1  1  1  1  1  1  1  1  1  1  1  1  1  1  1  1  1  1
1  1  1  1  1
1446  1439  1437  1430  1425  1413  1402  1386  1370  1345
1319  1282  1242  1194  1141  1084  1023  957  894  826
762  699  643  587  538  488  445  399  357  317  278  241
201  155  102  53  24  2  0  0  0  0  0  0  0  0  0  1  1
0  0  1  0  1  1  1  1  1  1  1  1  1  1  1  1  1  1  1
1  1  1  1  1
1446  1441  1435  1433  1421  1417  1403  1388  1373  1344
1321  1280  1240  1190  1133  1077  1010  949  881  813
751  688  635  581  532  486  441  400  358  319  281  244
204  155  103  53  25  2  0  0  0  0  0  0  0  1  1  1  1
1  1  1  0  1  1  1  1  1  1  1  1  1  1  1  1  1  1  1
1  1  1  1  1
1446  1441  1437  1434  1425  1419  1405  1393  1374  1349
1319  1284  1235  1187  1130  1067  1004  940  870  806
740  682  629  577  529  486  441  401  359  321  284  246
206  157  103  55  26  3  0  0  0  0  0  0  0  1  0  1  1
0  1  1  1  1  1  1  1  1  1  1  1  1  1  1  1  1  1  1
1  1  1  1  1
1446  1444  1437  1437  1429  1418  1411  1394  1375  1351
1322  1279  1237  1184  1126  1064  999  931  863  799  734
678  623  575  527  484  441  402  361  323  286  247  207
157  103  55  26  3  0  0  0  0  0  0  0  1  1  1  1  1
1  1  1  1  1  1  1  1  1  1  1  1  1  1  1  1  1  1  1
1  1  1  1
1446  1445  1441  1434  1431  1421  1410  1395  1378  1351
1320  1283  1232  1183  1122  1060  994  929  858  794  733
675  623  574  528  484  443  401  362  324  287  249  209
158  104  56  27  3  0  0  0  0  0  0  0  0  1  1  1  0
0  0  1  1  1  1  1  1  1  1  1  1  1  1  1  1  1  1  1
1  1  1  1
1446  1444  1443  1436  1432  1424  1411  1399  1376  1354
1320  1280  1233  1179  1121  1059  991  928  855  793  729
675  621  573  526  483  440  402  360  325  287  250  209
158  104  56  27  3  0  0  0  0  1  0  0  1  1  1  1  1
1  1  1  1  1  1  1  1  1  1  1  1  1  1  1  1  1  1  1
1  1  1  1
1446  1448  1444  1437  1434  1423  1413  1398  1376  1356
1316  1285  1231  1184  1123  1061  997  930  862  796  733
677  623  573  528  483  443  402  363  325  288  250  209
158  104  57  27  3  0  0  0  0  0  0  0  1  1  1  1  1
1  1  1  1  1  1  1  1  1  1  1  1  1  1  1  1  1  1  1
1  1  1  1
1446  1445  1439  1437  1426  1423  1407  1393  1377  1349
1320  1281  1233  1183  1126  1061  1001  931  867  799
737  678  625  576  530  485  442  401  361  324  287  249
208  158  104  56  27  3  0  1  0  1  1  0  0  1  1  1  1
1  1  1  1  1  1  1  1  1  1  1  1  1  1  1  1  1  1  1
1  1  1  1  1
1446  1443  1438  1434  1427  1419  1408  1391  1375  1347
1322  1279  1238  1185  1130  1069  1004  942  873  808
744  687  630  581  532  487  444  402  362  322  286  247
208  158  105  57  27  2  0  1  0  1  1  1  0  1  1  1  1
1  1  1  1  1  1  1  1  1  1  1  1  1  1  1  1  1  1  1
1  1  1  1  1
1446  1443  1438  1433  1426  1416  1406  1388  1374  1345
1320  1279  1239  1187  1134  1074  1012  949  883  817
752  694  636  585  536  490  445  402  361  322  284  244
205  157  104  56  27  2  1  1  0  1  1  1  1  1  1  1  1
1  1  1  1  1  1  1  1  1  1  1  1  1  1  1  1  1  1  1
2  1  1  1  1
1446  1441  1438  1434  1424  1418  1401  1391  1369  1348
1317  1282  1240  1192  1141  1082  1023  958  895  829
766  704  647  593  541  494  447  404  360  321  282  244
203  156  104  56  26  2  1  1  0  0  1  1  1  1  1  1  1
1  1  1  1  1  1  1  1  1  1  1  1  1  1  1  1  1  1  1
1  1  1  1  1
1446  1442  1438  1430  1426  1410  1403  1386  1367  1346
1314  1284  1241  1198  1147  1089  1034  968  908  842
780  719  657  603  548  499  451  405  362  319  280  240
200  155  103  54  25  1  1  1  1  1  1  1  1  1  1  1  1
1  1  1  1  1  1  1  1  1  1  1  1  1  1  1  1  1  2  1
2  1  2  2  1
1446  1443  1439  1429  1427  1409  1404  1383  1367  1344
1315  1283  1245  1200  1155  1099  1046  984  923  861
796  734  674  614  560  506  457  407  362  319  277  238
197  154  103  54  24  1  1  1  1  1  1  1  1  1  1  1  1
1  1  1  1  1  1  1  1  1  1  1  1  1  1  1  1  1  1  1
1  1  1  2  1
1446  1445  1436  1432  1423  1410  1398  1382  1361  1339
1312  1278  1248  1200  1161  1108  1054  998  937  875
816  751  690  629  570  517  462  413  365  318  276  235
193  152  102  53  23  1  1  1  1  1  1  1  1  1  1  1  1
1  1  1  1  1  1  1  1  1  1  1  1  1  1  1  1  2  2  1
2  2  2  2  1
1446  1447  1438  1436  1422  1414  1396  1383  1361  1340
1310  1284  1243  1209  1159  1114  1061  1006  949  891
830  772  706  648  585  531  473  420  369  320  274  232
190  149  100  52  22  1  1  1  1  1  1  1  1  1  1  1  1
1  1  1  1  1  1  1  1  1  1  1  1  1  1  1  1  2  2  1
2  1  2  2  1
1446  1445  1438  1433  1422  1410  1394  1378  1357  1332
1307  1275  1243  1206  1164  1117  1068  1017  961  903
845  785  726  663  602  544  485  430  375  324  274  229
186  143  99  50  19  1  1  1  1  1  1  1  2  1  1  1  1
1  1  1  1  1  1  2  1  1  2  1  1  2  2  2  2  2  2  2
2  2  2  2  1
1446  1445  1442  1433  1423  1408  1393  1375  1354  1329
1303  1273  1238  1202  1161  1117  1069  1020  965  912
855  797  737  678  619  557  498  438  382  327  275  226
181  138  95  48  17  1  1  1  1  1  1  1  1  1  1  1  1
1  1  1  1  1  1  2  1  1  1  2  1  2  1  2  2  2  2  2
2  2  2  2  1
1446  1450  1440  1436  1422  1411  1393  1375  1354  1327
1301  1268  1237  1196  1159  1114  1068  1021  967  916
860  804  745  686  628  568  508  446  388  330  275  224
176  133  91  47  15  1  1  1  1  1  1  1  1  1  1  1  2
1  2  2  1  2  2  2  1  1  2  2  2  2  2  2  2  2  2  2
2  2  2  2  1
1446  1446  1442  1433  1421  1407  1387  1372  1344  1323
1293  1263  1230  1191  1156  1108  1066  1015  966  913
860  804  748  689  631  569  512  449  391  331  274  219
170  125  83  43  12  1  1  1  1  1  1  1  1  1  1  1  1
1  1  1  1  1  2  2  1  2  2  1  2  2  2  2  2  2  2  2
2  2  2  2  1
1446  1447  1440  1430  1421  1402  1386  1367  1341  1317
1287  1256  1221  1183  1142  1104  1054  1011  958  909
855  801  743  687  627  569  509  449  388  329  270  215
162  116  76  39  9  1  1  1  1  1  1  1  1  1  1  1  2
1  2  2  2  2  2  2  2  2  2  2  2  2  2  2  2  2  2  2
2  2  2  2  1
1446  1444  1436  1426  1417  1398  1382  1358  1338  1305
1282  1246  1213  1174  1136  1092  1047  1002  949  900
845  792  734  679  621  562  503  442  381  321  263  206
153  106  66  33  7  1  1  1  1  1  1  1  1  1  1  1  1
2  2  2  2  2  2  2  1  2  2  2  2  2  2  2  2  2  2  2
2  2  2  2  1
1446  1440  1438  1426  1415  1398  1381  1359  1335  1307
1277  1244  1209  1172  1126  1088  1038  993  944  889
840  782  729  672  615  557  496  437  375  315  256  199
146  98  57  27  5  1  1  1  1  1  1  1  1  1  1  2  2  2
2  2  2  2  2  2  2  2  2  2  2  2  2  2  2  2  2  2  2
2  2  2  1
1446  1437  1435  1422  1413  1392  1379  1353  1331  1301
1273  1238  1203  1164  1122  1079  1033  986  937  884
833  776  723  664  608  547  490  429  369  309  250  193
140  91  49  21  3  1  1  1  1  1  1  1  1  1  2  1  2  2
2  2  2  2  2  2  2  2  2  2  2  2  2  2  2  2  2  2  2
2  2  2  1
1446  1432  1426  1415  1404  1386  1370  1345  1324  1293
1266  1228  1196  1153  1117  1068  1027  975  931  874
827  768  717  658  605  544  489  427  370  308  251  193
139  89  48  18  2  1  1  1  1  1  1  1  1  2  2  2  2  2
2  2  2  2  2  2  2  2  2  2  2  2  2  2  2  2  2  2  2
2  2  2  1
