IESNA:LM-63-2002
[TEST] 501896SR2
[TESTDATE] 5/15/2013
[ISSUEDATE] 6/10/2016
[TESTLAB] ACUITY BRANDS LIGHTING GRANVILLE LAB
[TESTMETHOD] IES LM-79-08
[MANUFAC] Lithonia Lighting
[LUMCAT] MSLR 4L LP835
[LUMINAIRE] LED LOW BAY INDUSTRIAL RETROFIT KIT, 4FT LONG, MIRO 5 REFLECTOR, AND DIFFUSE ACRYLIC LENS, 4100 NOMINAL LUMENS, 3500K LEDS
[LAMPCAT] LED LINEAR ARRAY
[LAMP] Nichia 757 3500K 80+ CRI
[BALLAST] 120V Sawtooth
[BALLASTCAT] ELECTRONIC
[DISTRIBUTION] DIRECT, SC-0=1.24, SC-90=1.25
[_TOTALLUMINAIRELUMENS] 4053.4
[_LAMPPOSITION] 0 , 0
[_LAMPTYPE] LED
[_LAMPWATTAGE] 44.4
[_MOUNTING] Suspended
[_FAMILY] MSLR
[_PRODUCTID] 520b7953-d3fd-4098-b77e-9141895dc707
[_ABSOLUTE] NOTE: DATA SHOWN IS ABSOLUTE FOR THE SAMPLE PROVIDED.
[_ABSOLUTELUMENS] 4083
[_LAMPPOSITION] 0 , 0
[_TOTALLUMINAIRELUMENS] 4083
[OTHER] LED Industrial strip luminaire with frosted acrylic lens
[TESTMETHOD] IES LM- 79-08
TILT=NONE
1  -1  1  73  37  1  1  0.67  4  0
1  1  44.1
0  2.5  5  7.5  10  12.5  15  17.5  20  22.5  25  27.5  30
32.5  35  37.5  40  42.5  45  47.5  50  52.5  55  57.5  60
62.5  65  67.5  70  72.5  75  77.5  80  82.5  85  87.5  90
92.5  95  97.5  100  102.5  105  107.5  110  112.5  115
117.5  120  122.5  125  127.5  130  132.5  135  137.5  140
142.5  145  147.5  150  152.5  155  157.5  160  162.5  165  167.5  170  172.5  175  177.5  180
0  5  10  15  20  25  30  35  40  45  50  55  60  65  70
75  80  85  90  95  100  105  110  115  120  125  130  135  140  145  150  155  160  165  170  175  180
1453  1448  1439  1431  1420  1401  1382  1362  1338  1307
1277  1245  1207  1166  1128  1082  1033  986  938  881
827  775  719  658  604  547  484  425  366  305  246  189
136  87  44  15  1  0  0  0  0  0  0  0  0  0  0  0  1  0
1  1  1  1  1  1  1  1  1  1  1  1  1  1  1  1  1  1  1
1  1  1  1
1453  1443  1440  1425  1414  1401  1378  1356  1333  1308
1271  1243  1203  1166  1122  1081  1032  985  934  882
829  772  718  659  604  545  486  426  367  306  248  189
136  87  46  17  1  0  0  0  0  0  0  0  0  0  0  0  0  0
0  0  0  1  1  1  0  1  1  1  1  1  1  1  1  1  1  1  1
1  1  1  1
1453  1442  1439  1427  1418  1398  1384  1359  1336  1308
1279  1243  1210  1172  1129  1087  1040  991  943  892
836  781  727  668  612  553  493  433  373  311  252  195
142  94  53  25  2  0  0  0  0  0  0  0  0  0  0  0  0  0
1  0  0  1  1  1  0  1  1  1  1  1  1  1  1  1  1  1  1
1  1  1  1
1453  1444  1442  1432  1417  1406  1386  1361  1341  1313
1281  1253  1215  1177  1138  1094  1046  1001  950  898
846  791  734  678  620  558  499  438  378  318  258  201
150  102  62  32  4  0  0  0  0  0  0  0  0  0  0  0  0
0  0  0  0  0  0  1  0  1  1  1  1  1  1  1  1  1  1  1
1  1  1  1  1
1453  1448  1441  1433  1421  1407  1389  1367  1345  1318
1289  1259  1224  1186  1147  1104  1058  1012  962  909
857  800  744  687  626  565  507  444  385  324  265  209
158  110  72  37  7  0  0  0  0  0  0  0  0  0  0  0  0
0  1  0  0  0  1  1  1  1  1  1  1  1  1  1  1  1  1  1
1  1  1  1  1
1453  1448  1442  1435  1422  1409  1391  1371  1349  1326
1294  1268  1223  1195  1157  1111  1067  1019  967  916
861  804  748  687  628  567  505  445  384  325  267  213
164  118  80  41  8  0  0  0  0  0  0  0  0  0  0  0  0
0  0  0  0  0  0  1  0  0  0  1  1  1  1  1  1  1  1  1
1  1  1  1  1
1453  1446  1447  1435  1423  1412  1396  1374  1357  1327
1303  1271  1240  1200  1164  1116  1073  1022  972  916
863  804  747  684  625  562  502  439  382  323  269  217
170  127  89  44  11  0  0  0  0  0  0  0  0  0  0  0  1
0  1  1  0  1  1  1  1  1  1  1  1  1  1  1  1  1  1  1
1  1  1  1  1
1453  1446  1444  1431  1424  1409  1396  1375  1357  1329
1308  1273  1244  1204  1167  1119  1075  1023  972  914
857  798  737  675  614  551  490  432  374  321  267  219
175  135  94  46  13  0  0  0  0  0  0  0  0  0  0  0  0
0  0  0  0  1  1  1  0  0  1  1  1  1  1  1  1  1  1  1
1  1  1  1  1
1453  1447  1443  1431  1427  1410  1398  1381  1359  1338
1311  1280  1250  1209  1170  1124  1073  1023  964  906
847  784  723  659  598  539  478  424  369  318  268  223
181  141  97  47  16  0  0  0  0  0  1  0  1  0  0  0  0
1  1  0  1  1  1  1  0  1  1  1  1  1  1  1  1  1  1  1
1  1  1  1  1
1453  1448  1446  1434  1428  1415  1400  1385  1364  1342
1317  1281  1253  1207  1167  1119  1066  1013  953  891
833  767  705  641  581  524  468  414  364  315  269  225
186  146  100  48  17  0  0  0  0  0  0  0  0  1  0  0  0
0  1  0  1  0  1  1  0  0  1  1  1  1  1  1  1  1  1  1
1  1  1  1  1
1453  1441  1442  1430  1424  1406  1399  1387  1363  1346
1317  1287  1252  1210  1166  1115  1060  1001  940  877
814  749  687  624  568  512  460  408  360  315  270  230
190  151  101  50  20  1  0  0  0  0  0  1  1  1  0  0  1
0  1  1  1  1  1  1  0  1  1  1  1  1  1  1  1  1  1  1
1  1  1  1  1
1453  1445  1445  1433  1430  1417  1406  1391  1369  1350
1319  1291  1248  1208  1158  1106  1050  986  926  859
797  731  670  612  554  504  452  404  359  315  273  234
195  153  102  50  21  1  0  0  0  0  0  0  1  0  0  0  0
0  1  0  0  0  1  1  0  1  1  0  1  1  1  1  1  1  1  1
1  1  1  1  1
1453  1449  1439  1439  1426  1421  1406  1393  1372  1350
1323  1288  1250  1204  1153  1097  1039  976  910  845
778  716  655  600  546  496  448  402  358  317  275  239
199  155  103  52  22  2  0  0  0  0  0  0  1  0  1  0  1
1  1  1  1  1  1  1  1  1  1  1  1  1  1  1  1  1  1  1
1  1  1  1  1
1453  1446  1444  1436  1431  1420  1409  1393  1376  1351
1325  1288  1248  1200  1146  1089  1028  962  898  830
766  702  646  590  541  490  447  401  359  319  279  242
202  156  103  53  24  2  0  0  0  0  0  0  0  0  0  1  1
0  0  1  0  1  1  1  1  1  1  1  1  1  1  1  1  1  1  1
1  1  1  1  1
1453  1448  1441  1439  1427  1423  1410  1395  1379  1350
1327  1286  1246  1196  1138  1082  1015  953  885  817
755  692  638  584  535  488  443  401  360  321  282  245
205  156  104  53  25  2  0  0  0  0  0  0  0  1  1  1  1
1  1  1  0  1  1  1  1  1  1  1  1  1  1  1  1  1  1  1
1  1  1  1  1
1453  1448  1444  1440  1431  1425  1412  1400  1380  1355
1325  1290  1241  1193  1135  1072  1009  944  874  810
744  686  632  580  532  488  443  402  361  323  285  248
207  158  104  55  26  3  0  0  0  0  0  0  0  1  0  1  1
0  1  1  1  1  1  1  1  1  1  1  1  1  1  1  1  1  1  1
1  1  1  1  1
1453  1451  1444  1444  1435  1424  1418  1401  1381  1357
1328  1285  1243  1190  1131  1069  1003  935  867  803
738  682  626  578  530  486  443  403  363  325  287  249
208  158  104  55  26  3  0  0  0  0  0  0  0  1  1  1  1
1  1  1  1  1  1  1  1  1  1  1  1  1  1  1  1  1  1  1
1  1  1  1  1
1453  1452  1448  1440  1437  1427  1417  1402  1384  1357
1326  1289  1238  1189  1128  1065  998  933  862  798  737
678  626  577  531  486  445  402  364  326  288  251  210
159  105  56  27  3  0  0  0  0  0  0  0  0  1  1  1  0
0  0  1  1  1  1  1  1  1  1  1  1  1  1  1  1  1  1  1
1  1  1  1
1453  1451  1450  1442  1438  1430  1418  1406  1382  1360
1326  1286  1239  1185  1127  1064  995  932  859  797  732
678  623  576  529  485  442  403  362  327  288  252  210
159  105  56  27  3  0  0  0  0  1  0  0  1  1  1  1  1
1  1  1  1  1  1  1  1  1  1  1  1  1  1  1  1  1  1  1
1  1  1  1
1453  1455  1451  1444  1440  1429  1420  1405  1382  1362
1322  1291  1237  1190  1129  1066  1001  934  866  800
737  680  626  576  531  485  445  403  365  327  289  252
210  159  105  57  28  3  0  0  0  0  0  0  0  1  1  1  1
1  1  1  1  1  1  1  1  1  1  1  1  1  1  1  1  1  1  1
1  1  1  1  1
1453  1452  1446  1444  1432  1429  1414  1400  1383  1355
1326  1287  1239  1189  1131  1066  1005  935  871  803
741  682  628  579  533  487  444  402  363  326  288  251
209  159  105  56  27  3  0  1  0  1  1  0  0  1  1  1  1
1  1  1  1  1  1  1  1  1  1  1  1  1  1  1  1  1  1  1
1  1  1  1  1
1453  1450  1445  1440  1433  1425  1415  1398  1381  1353
1328  1285  1244  1191  1135  1074  1009  946  877  812
748  691  633  584  535  489  446  403  364  324  287  249
209  159  106  57  27  2  0  1  0  1  1  1  0  1  1  1  1
1  1  1  1  1  1  1  1  1  1  1  1  1  1  1  1  1  1  1
1  1  1  1  1
1453  1450  1445  1439  1432  1422  1413  1395  1380  1351
1326  1285  1245  1193  1139  1079  1017  953  887  821
756  697  639  588  539  492  447  403  363  324  285  246
206  158  105  56  27  2  1  1  0  1  1  1  1  1  1  1  1
1  1  1  1  1  1  1  1  1  1  1  1  1  1  1  1  1  1  1
2  1  1  1  1
1453  1448  1445  1440  1430  1424  1408  1398  1375  1354
1323  1288  1246  1198  1146  1087  1028  963  900  833
769  707  650  596  544  496  449  405  362  323  283  245
204  157  105  56  26  2  1  1  0  0  1  1  1  1  1  1  1
1  1  1  1  1  1  1  1  1  1  1  1  1  1  1  1  1  1  1
1  1  1  1  1
1453  1449  1445  1436  1432  1417  1410  1393  1373  1352
1320  1290  1247  1203  1152  1094  1039  973  912  846
783  722  660  606  550  501  453  406  364  321  281  241
201  156  104  54  25  1  1  1  1  1  1  1  1  1  1  1  1
1  1  1  1  1  1  1  1  1  1  1  1  1  1  1  1  1  2  1
2  1  2  2  1
1453  1450  1446  1435  1433  1416  1411  1390  1373  1350
1321  1289  1251  1205  1160  1104  1051  988  927  865
800  738  677  617  562  508  459  409  364  321  278  239
198  155  104  54  24  1  1  1  1  1  1  1  1  1  1  1  1
1  1  1  1  1  1  1  1  1  1  1  1  1  1  1  1  1  1  1
1  1  1  2  1
1453  1452  1442  1438  1429  1417  1405  1388  1367  1346
1318  1284  1254  1205  1166  1113  1058  1002  941  879
820  755  693  632  573  520  465  415  367  320  277  236
194  153  103  53  23  1  1  1  1  1  1  1  1  1  1  1  1
1  1  1  1  1  1  1  1  1  1  1  1  1  1  1  1  2  2  1
2  2  2  2  1
1453  1454  1445  1442  1428  1421  1403  1390  1367  1347
1316  1290  1249  1214  1164  1120  1066  1011  954  895
834  775  709  651  588  534  475  422  371  322  275  233
190  150  101  52  22  1  1  1  1  1  1  1  1  1  1  1  1
1  1  1  1  1  1  1  1  1  1  1  1  1  1  1  1  2  2  1
2  1  2  2  1
1453  1452  1445  1439  1428  1417  1401  1384  1363  1339
1313  1281  1249  1211  1169  1123  1073  1022  966  908
849  788  729  666  605  547  487  432  377  326  275  230
186  144  100  50  19  1  1  1  1  1  1  1  2  1  1  1  1
1  1  1  1  1  1  2  1  1  2  1  1  2  2  2  2  2  2  2
2  2  2  2  1
1453  1452  1449  1439  1429  1415  1400  1381  1360  1336
1309  1278  1244  1207  1166  1123  1074  1025  970  916
859  801  741  681  621  559  500  440  384  328  276  227
182  139  96  48  17  1  1  1  1  1  1  1  1  1  1  1  1
1  1  1  1  1  1  2  1  1  1  2  1  2  1  2  2  2  2  2
2  2  2  2  1
1453  1457  1447  1443  1428  1418  1400  1381  1360  1333
1307  1274  1243  1202  1164  1120  1073  1026  972  920
864  808  749  690  631  570  510  448  390  331  276  225
177  133  92  47  15  1  1  1  1  1  1  1  1  1  1  1  2
1  2  2  1  2  2  2  1  1  2  2  2  2  2  2  2  2  2  2
2  2  2  2  1
1453  1453  1449  1439  1427  1414  1394  1378  1350  1329
1299  1269  1236  1197  1161  1113  1071  1020  971  917
864  808  752  693  634  571  514  451  393  332  275  220
171  125  84  43  12  1  1  1  1  1  1  1  1  1  1  1  1
1  1  1  1  1  2  2  1  2  2  1  2  2  2  2  2  2  2  2
2  2  2  2  1
1453  1454  1447  1436  1427  1409  1393  1373  1348  1323
1293  1262  1227  1189  1147  1109  1058  1016  963  913
859  805  747  691  630  572  511  451  390  330  271  216
163  116  76  39  9  1  1  1  1  1  1  1  1  1  1  1  2
1  2  2  2  2  2  2  2  2  2  2  2  2  2  2  2  2  2  2
2  2  2  2  1
1453  1451  1443  1432  1423  1405  1389  1364  1345  1311
1288  1252  1218  1180  1141  1097  1052  1006  953  905
849  796  738  683  623  564  505  444  383  323  264  207
154  107  66  34  7  1  1  1  1  1  1  1  1  1  1  1  1
2  2  2  2  2  2  2  1  2  2  2  2  2  2  2  2  2  2  2
2  2  2  2  1
1453  1447  1445  1432  1422  1405  1387  1365  1342  1313
1283  1250  1214  1178  1131  1093  1043  997  948  893
844  785  732  675  618  559  498  439  377  317  257  200
147  99  57  27  5  1  1  1  1  1  1  1  1  1  1  2  2  2
2  2  2  2  2  2  2  2  2  2  2  2  2  2  2  2  2  2  2
2  2  2  1
1453  1444  1441  1428  1420  1399  1385  1359  1338  1307
1278  1244  1208  1169  1128  1084  1038  990  941  888
837  779  726  667  611  549  492  431  371  311  252  194
141  92  49  21  3  1  1  1  1  1  1  1  1  1  2  1  2  2
2  2  2  2  2  2  2  2  2  2  2  2  2  2  2  2  2  2  2
2  2  2  1
1453  1438  1432  1422  1411  1393  1376  1351  1330  1299
1272  1234  1202  1158  1123  1073  1032  980  935  878
831  771  720  661  608  547  491  429  372  310  253  194
140  90  48  18  2  1  1  1  1  1  1  1  1  2  2  2  2  2
2  2  2  2  2  2  2  2  2  2  2  2  2  2  2  2  2  2  2
2  2  2  1
