IESNA:LM-63-2002
[TEST] LTL18722
[TESTDATE] 4/5/2010
[ISSUEDATE] 1/8/2015
[TESTLAB] ACUITY BRANDS LIGHTING CONYERS LAB
[TESTMETHOD] IES LM-41:1998
[MANUFAC] Lithonia Lighting
[LUMCAT] FCW4 2 32 1CF9
[LUMINAIRE] SURFACE-MOUNT CORRIDOR AND WALL, 6"X4', WITH TWO LAMPS AND 9W COMPACT FLUORESCENT NIGHT LIGHT TURNED OFF
[LAMPCAT] F32T8
[LAMP] TWO 32-WATT T8 LINEAR FLUORESCENT
[BALLAST] QTP2X32T8/UNV PSN-TC
[BALLASTCAT] Orsam/Sylvania (GEB10PS)
[DISTRIBUTION] GENERAL DIFFUSE, SC-0=1.12, SC-90=1.57
[_LAMPPOSITION] 0 , 0
[_LAMPTYPE] T8 LINEAR
[_LAMPWATTAGE] 32
[_LAMPLUMENS] 2800
[_MOUNTING] Wall
[_FAMILY] FCW
[_PRODUCTID] bf7b8749-97df-42d6-a1d5-eead5ae25eb1
[_BALLAST_TYPE] ELECTRONIC
[_FIXTURE_TYPE] LINEAR FLUORESCENT DIRECT/INDIRECT PENDANT MOUNT
TILT=NONE
2  2800  1  73  17  1  1  0.25  3.99  0.46
1  1  54.8
0  2.5  5  7.5  10  12.5  15  17.5  20  22.5  25  27.5  30
32.5  35  37.5  40  42.5  45  47.5  50  52.5  55  57.5  60
62.5  65  67.5  70  72.5  75  77.5  80  82.5  85  87.5  90
92.5  95  97.5  100  102.5  105  107.5  110  112.5  115
117.5  120  122.5  125  127.5  130  132.5  135  137.5  140
142.5  145  147.5  150  152.5  155  157.5  160  162.5  165  167.5  170  172.5  175  177.5  180
0  22.5  45  67.5  90  112.5  135  157.5  180  202.5  225  247.5  270  292.5  315  337.5  360
496  495  492  488  482  473  464  453  440  425  408  389
368  345  320  295  267  240  215  192  171  153  137  123
110  99  88  77  66  54  43  32  22  14  7  2  1  2  6  13
22  31  42  53  64  75  86  97  109  121  136  152  171
192  214  239  265  291  316  340  362  384  403  421  437
451  463  474  483  490  495  499  494
496  507  514  520  523  523  521  515  507  498  487  474
463  450  437  424  411  399  388  377  367  357  347  335
323  310  297  284  268  252  237  224  212  201  192  185
184  187  193  202  212  223  236  250  265  279  293  306
318  330  342  353  363  374  386  399  412  425  440  455
469  482  495  505  514  521  524  525  524  520  515  509
494
496  510  525  536  541  542  535  524  505  487  475  478
486  500  516  537  562  591  620  649  678  704  725  739
749  757  763  765  763  757  750  742  732  721  711  702
695  692  698  705  713  722  730  736  743  746  746  743
737  728  714  695  670  641  611  583  555  531  511  496
486  480  483  498  517  535  544  545  543  533  519  504
494
496  511  530  543  547  541  522  502  500  516  539  569
610  656  704  754  802  844  878  908  935  956  975  990
1001  1009  1015  1017  1015  1011  1005  999  991  982
975  968  956  950  955  961  967  972  976  980  983  985
983  979  972  963  952  938  920  895  867  833  791  744
695  649  605  569  540  520  507  515  538  552  550  543
526  505  494
496  515  535  547  550  541  519  507  522  547  579  623
674  725  781  833  881  920  955  983  1007  1029  1049
1065  1078  1087  1092  1095  1095  1092  1087  1081  1074
1066  1059  1052  1038  1031  1036  1041  1048  1052  1056
1059  1060  1061  1060  1055  1047  1036  1023  1007  989
967  941  908  868  819  767  714  665  616  576  545  522
516  532  553  555  547  529  506  494
496  516  535  548  553  548  529  511  508  527  551  582
622  667  709  752  796  839  875  903  928  949  967  982
995  1005  1010  1013  1012  1008  1003  996  988  979  971
963  950  944  949  955  962  967  972  976  980  981  979
974  967  956  945  931  913  891  863  825  783  741  700
657  614  578  549  528  515  525  546  559  556  548  529
508  494
496  517  533  544  550  551  546  536  520  504  493  495
504  517  534  553  576  601  623  643  664  683  701  714
724  730  733  734  734  732  728  721  711  702  691  682
670  669  676  685  693  702  708  714  718  720  721  719
715  705  690  672  653  633  613  589  565  544  526  512
501  496  500  516  533  547  553  553  549  538  523  508
494
496  513  522  528  532  532  531  526  517  509  498  486
475  464  452  442  431  421  412  403  395  386  375  365
352  338  322  305  286  268  249  231  214  198  183  172
166  172  182  197  212  228  245  263  281  298  315  330
344  356  367  378  388  398  408  418  429  441  455  469
481  494  505  515  523  529  532  532  529  525  518  512
494
496  496  493  489  483  475  465  453  440  425  409  390
369  346  322  295  267  240  214  191  170  152  137  122
110  98  87  75  64  54  43  32  23  14  7  2  1  3  8  15
24  33  44  54  65  77  88  100  112  125  140  157  176
197  221  246  273  300  325  349  371  392  411  428  443
457  469  480  488  494  498  500  494
496  489  482  471  460  446  430  412  390  369  349  331
313  297  283  267  253  238  222  207  192  178  163  148
134  119  106  93  80  67  55  43  32  22  14  8  6  9  14
21  29  40  52  65  79  93  107  121  136  151  166  181
196  211  226  241  258  274  289  306  322  339  359  379
401  421  440  456  467  478  486  495  494
496  480  467  454  435  412  385  357  331  302  276  257
244  230  219  211  203  197  190  185  179  171  162  152
140  127  115  102  89  75  62  50  40  29  21  13  9  14
21  31  43  53  59  68  81  95  109  123  137  150  162
172  180  187  194  199  207  214  222  231  245  260  275
300  330  359  387  415  441  459  470  479  494
496  473  458  438  411  374  340  302  275  259  246  240
239  238  241  239  232  222  210  195  180  165  150  136
122  109  96  84  72  61  52  42  32  24  16  10  7  9  14
20  29  39  50  60  66  75  86  99  114  128  143  159  176
192  208  223  234  242  244  242  242  243  247  260  275
299  336  377  412  442  462  473  494
496  474  459  436  402  364  322  288  269  256  249  249
251  256  254  245  234  220  205  189  173  157  142  128
115  103  90  78  68  59  50  40  32  24  17  11  8  9  12
18  25  34  44  54  63  70  80  92  105  119  134  149  165
182  200  216  233  246  255  258  254  251  250  254  267
285  318  361  401  436  460  472  494
496  478  463  442  413  377  342  305  278  262  249  245
244  244  248  245  238  228  215  200  185  170  154  139
125  112  99  87  74  64  54  44  34  26  18  12  10  11
15  21  29  40  51  62  68  77  88  101  116  130  146  162
178  195  211  227  239  247  249  247  247  247  251  262
278  299  336  377  413  444  464  476  494
496  487  474  460  440  416  388  359  332  303  277  259
245  231  222  215  208  201  196  190  184  175  165  154
141  128  115  101  87  73  60  49  38  28  19  12  10  13
19  28  40  53  58  66  78  92  107  121  136  150  163
173  183  190  196  201  208  216  224  232  243  258  274
297  327  358  386  415  441  460  473  482  494
496  495  487  476  464  450  434  412  391  370  351  333
316  300  284  269  253  237  220  205  190  175  160  145
130  116  103  90  77  64  52  40  29  19  12  7  7  8  12
18  25  35  47  60  73  87  101  115  130  145  160  175
191  207  223  238  255  272  288  305  321  338  357  376
398  419  438  455  468  479  488  497  494
496  495  492  488  482  473  464  453  440  425  408  389
368  345  320  295  267  240  215  192  171  153  137  123
110  99  88  77  66  54  43  32  22  14  7  2  1  2  6  13
22  31  42  53  64  75  86  97  109  121  136  152  171
192  214  239  265  291  316  340  362  384  403  421  437
451  463  474  483  490  495  499  494
