IESNA:LM-63-2002
[TEST] LTL26924P23
[TESTDATE] 11/24/2014
[ISSUEDATE] 6/8/2016
[TESTLAB] SCALED PHOTOMETRY
[TESTMETHOD] 
[MANUFAC] Lithonia Lighting
[LUMCAT] 2TLX2 40L A19 MVOLT EZ1 LP850
[LUMINAIRE] 2TLX2 2X2 4000 NOMINAL LUMENS, A19 LENS, 5000K
[LAMPCAT] NICHIA NFSL757DT-V1 5000K
[LAMP] LED
[BALLAST] ECODRIVE
[BALLASTCAT] 
[DISTRIBUTION] DIRECT, SC-0=1.19, SC-90=1.18
[_TOTALLUMINAIRELUMENS] 3889.6
[_LAMPPOSITION] 0 , 0
[_LAMPTYPE] LED
[_LAMPWATTAGE] 35
[_MOUNTING] 
[_FAMILY] TLX
[_PRODUCTID] 932a8b7a-3f59-4c78-b007-8cd5c5903dc5
[_SCALED_TEST] SCALED FROM ABSOLUTE TEST: LTL26924P11 AND BASED ON NOMINAL SYSTEM PERFORMANCE.
TILT=NONE
1  -1  1.953  73  17  1  1  1.8  1.8  0
1  1  35
0  2.5  5  7.5  10  12.5  15  17.5  20  22.5  25  27.5  30
32.5  35  37.5  40  42.5  45  47.5  50  52.5  55  57.5  60
62.5  65  67.5  70  72.5  75  77.5  80  82.5  85  87.5  90
92.5  95  97.5  100  102.5  105  107.5  110  112.5  115
117.5  120  122.5  125  127.5  130  132.5  135  137.5  140
142.5  145  147.5  150  152.5  155  157.5  160  162.5  165  167.5  170  172.5  175  177.5  180
0  22.5  45  67.5  90  112.5  135  157.5  180  202.5  225  247.5  270  292.5  315  337.5  360
1089  1090  1085  1077  1065  1051  1036  1017  998.0001
971  943.0001  909.0001  868.0001  818.0001  759  693  622.0001
544.0001  453  360  270  203  154  116  87.00001  66  54
50  53  52  49  47  44  34  24  12  2  0  0  0  0  0  0
0  0  0  0  0  0  0  0  0  0  0  1  1  1  0  0  1  1  0
1  0  0  1  1  1  0  1  1  0  0
1089  1089  1082  1073  1062  1049  1034  1015  993.0001
967  939.0001  906.0001  866.0001  816.0001  758  694  626.0001
552.0001  471  386  316  266  224  188  161  138  118  103
93.00001  84.00001  72  59  45  35  29  17  2  0  0  0  0
0  0  0  0  0  0  0  0  0  0  0  0  1  0  1  0  1  1  1
1  0  1  0  0  1  0  0  0  1  1  0  0
1089  1086  1083  1073  1061  1048  1032  1013  991.0001
965  936.0001  901.0001  860.0001  812  755.0001  692  624.0001
548.0001  461  373  310  268  231  191  154  124  97.00001
71  52  41  36  41  41  33  23  12  2  0  0  0  0  0  0
0  0  0  0  1  0  0  0  0  0  0  1  1  1  0  0  1  0  0
1  0  0  1  0  1  1  1  1  1  0
1089  1091  1085  1076  1063  1050  1035  1018  997.0001
973  942.0001  910.0001  871.0001  825.0001  771  708.0001
644  573  493  409  333  276  231  193  162  136  111  93.00001
84.00001  79.00001  72  63  48  34  26  16  2  0  0  0  0
0  0  0  0  0  0  0  0  0  0  0  0  0  1  1  1  1  0  1
1  0  0  0  0  1  1  0  0  1  1  0  0
1089  1089  1086  1077  1066  1052  1036  1020  999.0001
975.0001  948.0001  916.0001  879.0001  832.0001  780.0001
716.0001  645  568  479  390  307  236  183  138  101  74.00001
59  58  60  58  53  50  44  35  24  12  2  0  0  0  0  0
0  0  0  0  0  0  0  0  0  0  0  1  1  1  0  1  1  1  1
1  1  0  1  1  1  1  1  1  1  0  0
1089  1091  1086  1077  1064  1053  1038  1020  999.0001
972  945.0001  912.0001  873.0001  826.0001  772  709.0001
643  573  495  413  337  282  239  201  171  147  126  109
96  85  73.00001  58  42  33  27  16  3  0  0  0  0  0  0
0  0  0  0  0  0  0  0  0  0  0  1  1  0  1  0  0  1  1
0  0  0  1  1  1  1  1  1  0  0
1089  1087  1083  1074  1063  1049  1034  1015  992.0001
968  938.0001  903.0001  862.0001  813  755.0001  691  623.0001
549.0001  463  378  312  272  234  192  155  126  101  75
55  42  36  40  42  34  24  12  2  0  0  0  0  0  0  0  1
0  0  0  0  1  0  0  0  1  1  1  1  1  1  1  1  1  0  1
1  1  1  1  1  1  1  0  0
1089  1092  1088  1080  1067  1053  1039  1019  999.0001
973  946.0001  911.0001  870.0001  819.0001  760  697.0001
627.0001  553  476  391  315  260  213  175  144  119  97.00001
83.00001  74.00001  69.00001  65.00001  59  50  37  29  18
3  0  0  0  0  0  0  0  0  0  0  0  0  1  0  0  0  1  1
1  1  1  1  0  1  0  1  1  1  1  1  1  1  0  1  0  0
1089  1087  1081  1070  1058  1045  1028  1009  986.0001
960.0001  930  892  847  793.0001  731  662.0001  587.0001
502  408  315  234  176  133  101  75  59  50  49  52  49
47  46  40  29  18  7  0  1  0  0  0  0  0  0  0  0  0  0
0  0  0  0  0  0  1  0  0  0  1  0  1  0  0  0  0  1  1
1  1  0  1  0  0
1089  1087  1079  1069  1057  1043  1025  1006  986.0001
957.0001  926  888  842  787.0001  724  659.0001  590.0001
513  428  347  289  243  202  171  146  127  112  100  91
82.00001  68.00001  51  37  30  24  9  0  0  0  0  0  0
0  0  0  0  0  0  0  0  0  0  0  0  0  0  0  0  0  1  0
0  1  0  0  0  0  0  0  1  0  0  0
1089  1084  1077  1067  1056  1041  1024  1004  982.0001
954.0001  921.0001  882  837.0001  782.0001  721  655  581.0001
496  408  336  289  257  215  173  139  109  80  58  45
36  33  38  36  28  18  6  0  0  0  0  0  0  0  0  0  0
0  0  0  0  0  0  0  0  0  0  0  0  0  0  0  0  1  0  0
0  1  0  0  1  0  0  0
1089  1087  1079  1070  1056  1044  1028  1008  986.0001
959.0001  927  890  846  795.0001  735  670.0001  601  525
443  366  312  265  224  187  155  127  102  87.00001  82.00001
77.00001  68.00001  57  40  30  24  9  0  0  0  0  0  0
0  0  0  0  0  0  0  0  0  0  0  0  0  0  0  0  0  0  1
0  1  1  0  0  0  0  0  1  0  0  0
1089  1085  1079  1069  1056  1042  1025  1007  985.0001
959.0001  929  893  851  799  740.0001  674.0001  602  522.0001
430  338  265  208  158  115  83.00001  62  52  49  48  45
45  44  36  27  17  6  0  0  0  0  0  0  0  0  0  0  0  0
0  0  0  0  0  0  0  0  1  0  0  1  0  0  1  0  0  0  0
0  0  1  0  0  0
1089  1085  1076  1065  1052  1039  1022  1002  980.0001
953.0001  921.0001  886  841  789.0001  730  665.0001  597
520.0001  437  360  305  261  222  189  159  131  109  94.00001
88.00001  80  69.00001  56  39  32  23  8  0  0  0  0  0
0  0  0  0  0  0  0  0  0  0  0  0  0  0  0  0  0  0  1
0  0  1  0  0  0  0  0  0  1  0  0  0
1089  1085  1076  1065  1053  1038  1021  1003  979.0001
950.0001  918.0001  878.0001  832.0001  778.0001  717  650
576  492  405  333  292  256  217  176  141  111  83.00001
60  45  36  35  39  36  27  17  5  0  0  0  0  0  0  0  0
0  0  0  1  0  0  0  0  0  0  0  0  0  0  0  0  1  0  1
0  0  0  0  0  0  1  0  0  0
1089  1089  1080  1070  1055  1044  1026  1006  982.0001
955.0001  923  885  839.0001  784.0001  722  655  584.0001
506  422  342  283  237  196  163  135  111  96  89.00001
85  79.00001  71  58  41  30  24  8  0  0  0  0  0  0  0
0  0  0  0  0  0  0  0  0  0  0  0  0  0  0  0  1  0  0
1  0  0  0  0  0  0  1  0  0  0
1089  1090  1084  1077  1065  1051  1036  1017  998.0001
971  942.0001  909.0001  868.0001  818.0001  759  693  622.0001
544.0001  453  360  270  203  154  116  87.00001  66  54
50  53  52  49  48  44  34  24  12  2  0  0  0  0  0  0
0  0  0  0  0  0  0  0  0  0  0  0  0  1  0  0  1  1  0
1  0  0  0  0  0  0  1  0  0  0
