IESNA:LM-63-2002
[TEST] LTL26924P14
[TESTDATE] 11/24/2014
[ISSUEDATE] 6/8/2016
[TESTLAB] SCALED PHOTOMETRY
[TESTMETHOD] 
[MANUFAC] Lithonia Lighting
[LUMCAT] 2TLX2 20L A19 MVOLT EZ1 LP840
[LUMINAIRE] 2TLX2 2X2 2000 NOMINAL LUMENS, A19 LENS, 4000K
[LAMPCAT] NICHIA NFSL757DT-V1 4000K
[LAMP] LED
[BALLAST] ECODRIVE
[BALLASTCAT] 
[DISTRIBUTION] DIRECT, SC-0=1.19, SC-90=1.18
[_TOTALLUMINAIRELUMENS] 2005.5
[_LAMPPOSITION] 0 , 0
[_LAMPTYPE] LED
[_LAMPWATTAGE] 18
[_MOUNTING] 
[_FAMILY] TLX
[_PRODUCTID] 44a567cb-d56e-41df-9ce1-a41350908eb7
[_SCALED_TEST] SCALED FROM ABSOLUTE TEST: LTL26924P2 AND BASED ON NOMINAL SYSTEM PERFORMANCE.
TILT=NONE
1  -1  1.007  73  17  1  1  1.8  1.8  0
1  1  18
0  2.5  5  7.5  10  12.5  15  17.5  20  22.5  25  27.5  30
32.5  35  37.5  40  42.5  45  47.5  50  52.5  55  57.5  60
62.5  65  67.5  70  72.5  75  77.5  80  82.5  85  87.5  90
92.5  95  97.5  100  102.5  105  107.5  110  112.5  115
117.5  120  122.5  125  127.5  130  132.5  135  137.5  140
142.5  145  147.5  150  152.5  155  157.5  160  162.5  165  167.5  170  172.5  175  177.5  180
0  22.5  45  67.5  90  112.5  135  157.5  180  202.5  225  247.5  270  292.5  315  337.5  360
1089  1090  1085  1077  1065  1051  1036  1017  998  971
942.9999  909  868  817.9999  759  692.9999  622  544  453
360  270  203  154  116  86.99999  66  54  50  53  52  49
47  44  34  24  12  2  0  0  0  0  0  0  0  0  0  0  0  0
0  0  0  0  0  1  1  1  0  0  1  1  0  1  0  0  1  1  1
0  1  1  0  0
1089  1089  1082  1073  1062  1049  1034  1015  993  967
939  906  865.9999  816  758  694  625.9999  552  471  386
316  266  224  188  161  138  118  103  93  84  72  59  45
35  29  17  2  0  0  0  0  0  0  0  0  0  0  0  0  0  0
0  0  1  0  1  0  1  1  1  1  0  1  0  0  1  0  0  0  1
1  0  0
1089  1086  1083  1073  1061  1048  1032  1013  990.9999
964.9999  936  900.9999  859.9999  811.9999  755  692  624
548  461  373  310  268  231  191  154  124  97  70.99999
52  41  36  41  41  33  23  12  2  0  0  0  0  0  0  0  0
0  0  1  0  0  0  0  0  0  1  1  1  0  0  1  0  0  1  0
0  1  0  1  1  1  1  1  0
1089  1091  1085  1076  1063  1050  1035  1018  996.9999
973  942  910  871  825  771  708  644  573  493  409  333
276  231  193  162  136  111  93  84  78.99999  72  63  48
34  26  16  2  0  0  0  0  0  0  0  0  0  0  0  0  0  0
0  0  0  1  1  1  1  0  1  1  0  0  0  0  1  1  0  0  1
1  0  0
1089  1089  1086  1077  1066  1052  1036  1020  999  974.9999
948  916  878.9999  832  779.9999  715.9999  644.9999  567.9999
479  390  307  236  183  138  101  74  59  58  60  58  53
50  44  35  24  12  2  0  0  0  0  0  0  0  0  0  0  0  0
0  0  0  0  1  1  1  0  1  1  1  1  1  1  0  1  1  1  1
1  1  1  0  0
1089  1091  1086  1077  1064  1053  1038  1020  999  971.9999
945  912  873  826  772  708.9999  643  573  495  413  337
282  239  201  171  147  126  109  96  85  73  58  42  33
27  16  3  0  0  0  0  0  0  0  0  0  0  0  0  0  0  0  0
0  1  1  0  1  0  0  1  1  0  0  0  1  1  1  1  1  1  0
0
1089  1087  1083  1074  1063  1049  1034  1015  992  968
938  903  862  813  755  691  622.9999  548.9999  463  378
312  272  234  192  155  126  101  74.99999  55  42  36
40  42  34  24  12  2  0  0  0  0  0  0  0  1  0  0  0  0
1  0  0  0  1  1  1  1  1  1  1  1  1  0  1  1  1  1  1
1  1  1  0  0
1089  1092  1088  1080  1067  1053  1039  1019  999  973
945.9999  910.9999  870  819  759.9999  697  627  553  476
391  315  260  213  175  144  119  97  82.99999  74  69
65  59  50  37  29  18  3  0  0  0  0  0  0  0  0  0  0
0  0  1  0  0  0  1  1  1  1  1  1  0  1  0  1  1  1  1
1  1  1  0  1  0  0
1089  1087  1081  1070  1058  1045  1028  1009  986  960
929.9999  891.9999  846.9999  793  731  662  587  502  408
315  234  176  133  101  74.99999  59  50  49  52  49  47
46  40  29  18  7  0  1  0  0  0  0  0  0  0  0  0  0  0
0  0  0  0  0  1  0  0  0  1  0  1  0  0  0  0  1  1  1
1  0  1  0  0
1089  1087  1079  1069  1057  1043  1025  1006  986  957
926  887.9999  842  787  724  659  590  513  428  347  289
243  202  171  146  127  112  100  90.99999  82  68  51
37  30  24  9  0  0  0  0  0  0  0  0  0  0  0  0  0  0
0  0  0  0  0  0  0  0  0  1  0  0  1  0  0  0  0  0  0
1  0  0  0
1089  1084  1077  1067  1056  1041  1024  1004  982  954
920.9999  881.9999  836.9999  782  721  654.9999  580.9999
496  408  336  289  257  215  173  139  109  80  58  45
36  33  38  36  28  18  6  0  0  0  0  0  0  0  0  0  0
0  0  0  0  0  0  0  0  0  0  0  0  0  0  0  0  1  0  0
0  1  0  0  1  0  0  0
1089  1087  1079  1070  1056  1044  1028  1008  986  958.9999
926.9999  890  846  795  734.9999  670  601  525  443  366
312  265  224  187  155  127  102  86.99999  82  77  68
57  40  30  24  9  0  0  0  0  0  0  0  0  0  0  0  0  0
0  0  0  0  0  0  0  0  0  0  0  1  0  1  1  0  0  0  0
0  1  0  0  0
1089  1085  1079  1069  1056  1042  1025  1007  984.9999
958.9999  929  893  851  798.9999  740  673.9999  602  522
430  338  265  208  158  115  82.99999  62  52  49  48  45
45  44  36  27  17  6  0  0  0  0  0  0  0  0  0  0  0  0
0  0  0  0  0  0  0  0  1  0  0  1  0  0  1  0  0  0  0
0  0  1  0  0  0
1089  1085  1076  1065  1052  1039  1022  1002  980  952.9999
920.9999  886  841  788.9999  730  665  596.9999  520  437
360  305  261  222  189  159  131  109  94  88  80  69  56
39  32  23  8  0  0  0  0  0  0  0  0  0  0  0  0  0  0
0  0  0  0  0  0  0  0  0  1  0  0  1  0  0  0  0  0  0
1  0  0  0
1089  1085  1076  1065  1053  1038  1021  1003  979  950
918  878  832  778  717  650  576  492  405  333  292  256
217  176  141  111  82.99999  60  45  36  35  39  36  27
17  5  0  0  0  0  0  0  0  0  0  0  0  1  0  0  0  0  0
0  0  0  0  0  0  0  1  0  1  0  0  0  0  0  0  1  0  0
0
1089  1089  1080  1070  1055  1044  1026  1006  982  955
923  884.9999  839  784  721.9999  654.9999  584  506  422
342  283  237  196  163  135  111  96  89  85  78.99999
70.99999  58  41  30  24  8  0  0  0  0  0  0  0  0  0  0
0  0  0  0  0  0  0  0  0  0  0  0  0  1  0  0  1  0  0
0  0  0  0  1  0  0  0
1089  1090  1084  1077  1065  1051  1036  1017  998  971
942  909  868  817.9999  759  692.9999  622  544  453  360
270  203  154  116  86.99999  66  54  50  53  52  49  48
44  34  24  12  2  0  0  0  0  0  0  0  0  0  0  0  0  0
0  0  0  0  0  0  1  0  0  1  1  0  1  0  0  0  0  0  0
1  0  0  0
