IESNA:LM-63-2002
[TEST] LTL26924P22
[TESTDATE] 11/24/2014
[ISSUEDATE] 6/8/2016
[TESTLAB] SCALED PHOTOMETRY
[TESTMETHOD] 
[MANUFAC] Lithonia Lighting
[LUMCAT] 2TLX2 40L A19 MVOLT EZ1 LP840
[LUMINAIRE] 2TLX2 2X2 4000 NOMINAL LUMENS, A19 LENS, 4000K
[LAMPCAT] NICHIA NFSL757DT-V1 4000K
[LAMP] LED
[BALLAST] ECODRIVE
[BALLASTCAT] 
[DISTRIBUTION] DIRECT, SC-0=1.19, SC-90=1.18
[_TOTALLUMINAIRELUMENS] 3758.2
[_LAMPPOSITION] 0 , 0
[_LAMPTYPE] LED
[_LAMPWATTAGE] 35
[_MOUNTING] 
[_FAMILY] TLX
[_PRODUCTID] 0272f5a3-596d-4fa8-92c2-71cbe8a36ced
[_SCALED_TEST] SCALED FROM ABSOLUTE TEST: LTL26924P10 AND BASED ON NOMINAL SYSTEM PERFORMANCE.
TILT=NONE
1  -1  1.887  73  17  1  1  1.8  1.8  0
1  1  35
0  2.5  5  7.5  10  12.5  15  17.5  20  22.5  25  27.5  30
32.5  35  37.5  40  42.5  45  47.5  50  52.5  55  57.5  60
62.5  65  67.5  70  72.5  75  77.5  80  82.5  85  87.5  90
92.5  95  97.5  100  102.5  105  107.5  110  112.5  115
117.5  120  122.5  125  127.5  130  132.5  135  137.5  140
142.5  145  147.5  150  152.5  155  157.5  160  162.5  165  167.5  170  172.5  175  177.5  180
0  22.5  45  67.5  90  112.5  135  157.5  180  202.5  225  247.5  270  292.5  315  337.5  360
1089  1090  1085  1077  1065  1051  1036  1017  998.0001
971.0001  943  909.0001  868.0001  818  759.0001  693  622.0001
544  453  360  270  203  154  116  87  66  54  50  53  52
49  47  44  34  24  12  2  0  0  0  0  0  0  0  0  0  0
0  0  0  0  0  0  0  1  1  1  0  0  1  1  0  1  0  0  1
1  1  0  1  1  0  0
1089  1089  1082  1073  1062  1049  1034  1015  993.0001
967.0001  939  906  866.0001  816.0001  758  694.0001  626
552.0001  471  386  316  266  224  188  161  138  118  103
93.00001  84  72  59  45  35  29  17  2  0  0  0  0  0  0
0  0  0  0  0  0  0  0  0  0  1  0  1  0  1  1  1  1  0
1  0  0  1  0  0  0  1  1  0  0
1089  1086  1083  1073  1061  1048  1032  1013  991.0001
965.0001  936  901.0001  860  812.0001  755  692  624.0001
548  461  373  310  268  231  191  154  124  97.00001  71.00001
52  41  36  41  41  33  23  12  2  0  0  0  0  0  0  0  0
0  0  1  0  0  0  0  0  0  1  1  1  0  0  1  0  0  1  0
0  1  0  1  1  1  1  1  0
1089  1091  1085  1076  1063  1050  1035  1018  997.0001
973.0001  942.0001  910  871.0001  825.0001  771  708  644.0001
573  493  409  333  276  231  193  162  136  111  93.00001
84  79  72  63  48  34  26  16  2  0  0  0  0  0  0  0  0
0  0  0  0  0  0  0  0  0  1  1  1  1  0  1  1  0  0  0
0  1  1  0  0  1  1  0  0
1089  1089  1086  1077  1066  1052  1036  1020  999  975.0001
948.0001  916  879.0001  832.0001  780.0001  716  645.0001
568.0001  479  390  307  236  183  138  101  74.00001  59
58  60  58  53  50  44  35  24  12  2  0  0  0  0  0  0
0  0  0  0  0  0  0  0  0  0  1  1  1  0  1  1  1  1  1
1  0  1  1  1  1  1  1  1  0  0
1089  1091  1086  1077  1064  1053  1038  1020  999  972
945.0001  912.0001  873  826.0001  772  709  643  573  495
413  337  282  239  201  171  147  126  109  96  85.00001
73  58  42  33  27  16  3  0  0  0  0  0  0  0  0  0  0
0  0  0  0  0  0  0  1  1  0  1  0  0  1  1  0  0  0  1
1  1  1  1  1  0  0
1089  1087  1083  1074  1063  1049  1034  1015  992  968.0001
938.0001  903  862.0001  813.0001  755  691.0001  623  549.0001
463  378  312  272  234  192  155  126  101  75  55  42
36  40  42  34  24  12  2  0  0  0  0  0  0  0  1  0  0
0  0  1  0  0  0  1  1  1  1  1  1  1  1  1  0  1  1  1
1  1  1  1  1  0  0
1089  1092  1088  1080  1067  1053  1039  1019  999  973.0001
946  911.0001  870  819.0001  760.0001  697.0001  627  553
476  391  315  260  213  175  144  119  97.00001  83.00001
74.00001  69.00001  65  59  50  37  29  18  3  0  0  0  0
0  0  0  0  0  0  0  0  1  0  0  0  1  1  1  1  1  1  0
1  0  1  1  1  1  1  1  1  0  1  0  0
1089  1087  1081  1070  1058  1045  1028  1009  986  960.0001
930  892.0001  847  793.0001  731  662  587  502  408  315
234  176  133  101  75  59  50  49  52  49  47  46  40  29
18  7  0  1  0  0  0  0  0  0  0  0  0  0  0  0  0  0  0
0  1  0  0  0  1  0  1  0  0  0  0  1  1  1  1  0  1  0
0
1089  1087  1079  1069  1057  1043  1025  1006  986  957.0001
926  888.0001  842.0001  787  724.0001  659  590  513.0001
428  347  289  243  202  171  146  127  112  100  91  82
68  51  37  30  24  9  0  0  0  0  0  0  0  0  0  0  0  0
0  0  0  0  0  0  0  0  0  0  0  1  0  0  1  0  0  0  0
0  0  1  0  0  0
1089  1084  1077  1067  1056  1041  1024  1004  982  954.0001
921.0001  882.0001  837  782.0001  721.0001  655.0001  581
496  408  336  289  257  215  173  139  109  80  58  45
36  33  38  36  28  18  6  0  0  0  0  0  0  0  0  0  0
0  0  0  0  0  0  0  0  0  0  0  0  0  0  0  0  1  0  0
0  1  0  0  1  0  0  0
1089  1087  1079  1070  1056  1044  1028  1008  986  959
927.0001  890  846.0001  795  735  670  601.0001  525  443
366  312  265  224  187  155  127  102  87  82  77  68  57
40  30  24  9  0  0  0  0  0  0  0  0  0  0  0  0  0  0
0  0  0  0  0  0  0  0  0  0  1  0  1  1  0  0  0  0  0
1  0  0  0
1089  1085  1079  1069  1056  1042  1025  1007  985  959
929  893  851  799.0001  740.0001  674.0001  602.0001  522
430  338  265  208  158  115  83.00001  62  52  49  48  45
45  44  36  27  17  6  0  0  0  0  0  0  0  0  0  0  0  0
0  0  0  0  0  0  0  0  1  0  0  1  0  0  1  0  0  0  0
0  0  1  0  0  0
1089  1085  1076  1065  1052  1039  1022  1002  980.0001
953  921.0001  886  841  789.0001  730.0001  665  597  520
437  360  305  261  222  189  159  131  109  94  88.00001
80  69.00001  56  39  32  23  8  0  0  0  0  0  0  0  0
0  0  0  0  0  0  0  0  0  0  0  0  0  0  0  1  0  0  1
0  0  0  0  0  0  1  0  0  0
1089  1085  1076  1065  1053  1038  1021  1003  979  950.0001
918.0001  878.0001  832.0001  778  717.0001  650  576  492
405  333  292  256  217  176  141  111  83.00001  60  45
36  35  39  36  27  17  5  0  0  0  0  0  0  0  0  0  0
0  1  0  0  0  0  0  0  0  0  0  0  0  0  1  0  1  0  0
0  0  0  0  1  0  0  0
1089  1089  1080  1070  1055  1044  1026  1006  982  955.0001
923  885.0001  839.0001  784  722  655.0001  584  506  422
342  283  237  196  163  135  111  96  89  85.00001  79
71.00001  58  41  30  24  8  0  0  0  0  0  0  0  0  0  0
0  0  0  0  0  0  0  0  0  0  0  0  0  1  0  0  1  0  0
0  0  0  0  1  0  0  0
1089  1090  1084  1077  1065  1051  1036  1017  998.0001
971.0001  942.0001  909.0001  868.0001  818  759.0001  693
622.0001  544  453  360  270  203  154  116  87  66  54
50  53  52  49  48  44  34  24  12  2  0  0  0  0  0  0
0  0  0  0  0  0  0  0  0  0  0  0  0  1  0  0  1  1  0
1  0  0  0  0  0  0  1  0  0  0
