IESNA:LM-63-2002
[TEST] LTL19299
[TESTDATE] 9/29/2010
[ISSUEDATE] 3/5/2016
[TESTLAB] ACUITY BRANDS LIGHTING CONYERS LAB
[TESTMETHOD] IES LM-35:2002
[MANUFAC] Lithonia Lighting
[LUMCAT] OFL2 65F 120 LP BZ
[LUMINAIRE] 65w Fluorescent Dusk to Dawn FLOODLIGHT BZ
[LAMPCAT] PLM 65W 6500
[LAMP] ONE 65-WATT FLUORESCENT, FLOODLIGHT POS.
[BALLAST] 
[BALLASTCAT] 
[DISTRIBUTION] 7 X 7
[_LAMPPOSITION] 0 , 0
[_LAMPTYPE] COMPACT FLUORESCENT
[_LAMPWATTAGE] 65
[_LAMPLUMENS] 4300
[_MOUNTING] Wall
[_FAMILY] Standard Fluorescent Flood Light
[_PRODUCTID] 2a95ace3-dd9b-4993-b2ba-5e6d7a41b645
[_BALLAST_TYPE] ELECTRONIC
[_FIXTURE_TYPE] COMPACT FLUORESCENT MOUNT
TILT=NONE
1  4300  1  74  73  1  1  1  0  0.63
1  1  45.4
0  1  2.5  5  7.5  10  12.5  15  17.5  20  22.5  25  27.5
30  32.5  35  37.5  40  42.5  45  47.5  50  52.5  55  57.5
60  62.5  65  67.5  70  72.5  75  77.5  80  82.5  85  87.5
90  92.5  95  97.5  100  102.5  105  107.5  110  113.5  115
117.5  120  122.5  125  127.5  130  132.5  135  137.5  140
142.5  145  147.5  150  152.5  155  157.5  160  162.5  165  167.5  170  172.5  175  177.5  180
0  5  10  15  20  25  30  35  40  45  50  55  60  65  70
75  80  85  90  95  100  105  110  115  120  125  130  135
140  145  150  155  160  165  170  175  180  185  190  195
200  205  210  215  220  225  230  235  240  245  250  255
260  265  270  275  280  285  290  295  300  305  310  315  320  325  330  335  340  345  350  355  360
756  756  757  758  758  756  753  747  738  726  709  687
661  631  598  561  523  484  444  405  366  329  292  255
225  194  164  134  113  92  70  49  37  25  13  1  1  1
2  2  2  2  1  1  1  1  1  1  1  1  1  1  1  0  0  0  0
0  0  0  0  0  0  0  0  0  0  0  0  0  0  0  0  1
756  757  758  760  760  758  753  745  734  720  702  678
650  619  585  548  511  471  432  392  352  316  280  243
214  185  155  126  105  85  65  44  34  23  13  2  2  3
2  2  2  1  1  1  1  0  0  0  0  0  0  0  0  0  0  0  0
0  0  0  0  0  0  0  0  0  0  0  0  0  0  0  1  1
756  757  759  762  761  758  753  745  734  720  701  678
650  620  586  549  512  473  433  394  355  318  282  246
216  187  158  129  108  87  67  47  36  25  14  4  3  3
1  1  1  1  1  1  1  0  0  0  0  0  0  0  0  0  0  0  0
0  0  0  0  0  0  0  0  0  0  0  0  0  0  0  1  1
756  758  761  763  761  758  752  744  733  719  700  677
651  621  587  551  514  475  436  397  359  322  286  250
219  190  161  132  110  90  70  50  37  26  16  5  4  3
1  1  1  1  1  1  1  0  0  0  0  0  0  0  0  0  0  0  0
0  0  0  0  0  0  0  0  0  0  0  0  0  0  0  1  1
756  758  762  762  760  758  751  743  732  717  699  677
651  622  589  554  516  479  440  401  363  326  290  255
222  194  165  137  113  93  73  53  39  28  16  5  4  3
1  1  1  1  1  1  1  0  0  0  0  0  0  0  0  0  0  0  0
0  0  0  0  0  0  0  0  0  0  0  0  0  0  0  1  1
756  759  763  762  760  757  751  742  731  716  698  676
651  622  590  555  519  482  444  406  368  330  295  260
226  198  170  142  115  95  75  56  40  29  17  6  4  3
1  1  1  1  1  1  1  0  0  0  0  0  0  0  0  0  0  0  0
0  0  0  0  0  0  0  0  0  0  0  0  0  0  0  2  1
756  759  763  762  759  756  750  741  729  714  696  675
650  622  592  557  522  485  448  410  372  335  299  265
232  202  174  146  119  98  78  58  40  29  18  7  4  3
1  1  1  1  1  1  0  0  0  0  0  0  0  0  0  0  0  0  0
0  0  0  0  0  0  0  0  0  0  0  0  1  0  0  2  1
756  760  763  762  759  755  749  739  727  712  694  673
650  623  592  559  525  488  452  415  378  341  304  271
238  206  178  151  124  100  80  61  41  30  20  9  4  2
1  1  1  1  1  1  1  1  1  1  0  0  0  0  0  0  0  0  0
0  0  0  0  0  0  0  1  0  0  0  1  1  1  1  2  1
756  760  763  761  758  754  747  738  725  710  692  671
647  621  592  560  527  492  456  419  382  346  311  276
243  211  181  154  128  103  83  64  45  31  20  9  4  2
1  1  1  1  1  1  1  1  1  1  1  1  1  1  0  0  0  0  0
0  0  0  0  0  0  1  1  1  0  1  1  1  1  1  2  1
756  761  762  761  757  753  746  736  723  708  689  668
645  619  591  560  529  494  459  423  387  351  316  281
247  216  185  157  132  107  84  65  47  31  20  10  3
2  1  1  1  1  1  1  1  1  1  1  1  1  1  1  1  1  1  1
1  1  1  1  1  1  0  1  1  1  1  1  1  1  1  1  2  1
756  761  762  761  757  751  744  733  721  705  687  666
642  617  589  559  528  495  460  426  390  355  319  285
251  220  190  161  135  111  87  67  49  31  21  11  4
2  1  1  1  1  1  1  1  1  1  1  1  1  1  1  1  1  1  1
1  1  1  1  1  1  1  1  1  1  1  1  1  1  1  1  2  1
756  762  762  760  756  750  742  732  719  702  684  663
640  614  586  557  526  494  461  427  393  357  322  288
255  223  193  165  138  114  91  69  51  34  20  11  4
2  1  1  1  1  1  1  1  1  1  1  1  1  1  1  1  1  1  1
1  1  1  1  1  2  2  1  1  2  2  1  2  1  1  2  2  1
756  762  762  760  756  750  741  730  716  700  682  660
637  611  583  555  523  492  459  426  392  358  324  290
258  226  196  168  141  116  93  72  53  36  20  12  4
2  1  1  1  1  1  1  1  1  1  1  1  1  2  2  1  1  2  2
2  1  1  2  2  2  2  2  2  2  2  2  2  2  1  2  2  1
756  762  762  760  755  749  739  728  714  698  679  657
634  608  580  551  521  489  457  424  391  357  324  291
259  228  198  170  143  118  95  73  54  37  23  13  6
2  1  2  2  2  2  2  1  1  1  1  2  2  2  2  2  2  2  2
2  2  2  2  2  2  2  2  2  2  2  2  2  2  2  2  2  1
756  763  762  759  755  748  738  726  712  695  676  655
631  605  577  549  518  486  454  421  388  355  323  291
259  228  199  172  145  120  96  74  55  38  24  12  6
2  1  2  2  2  2  2  1  1  2  2  2  2  2  2  2  2  2  2
2  2  2  2  2  2  2  3  3  3  3  3  2  2  2  2  2  1
756  763  762  759  754  747  737  724  710  693  673  652
628  602  574  545  515  484  451  419  385  353  321  289
257  228  200  172  145  119  97  77  57  39  24  12  6
2  1  2  2  2  2  1  2  2  2  2  2  2  2  2  2  2  2  2
2  2  2  2  3  3  3  3  3  3  3  3  2  2  2  2  3  1
756  763  762  759  754  746  736  723  708  691  671  649
625  599  571  542  512  480  448  415  383  350  318  286
256  227  199  171  145  122  99  78  57  40  26  14  6
2  1  2  2  2  2  2  2  2  2  2  2  2  2  2  2  2  2  2
2  2  2  3  3  3  3  3  3  3  3  3  3  3  3  3  3  1
756  763  762  759  754  746  735  723  707  690  670  648
623  597  569  540  510  478  446  413  381  348  316  284
255  226  197  169  145  122  99  77  59  44  29  16  7
2  2  2  2  2  2  2  2  2  2  2  2  2  2  2  2  2  2  2
2  2  2  3  3  3  3  3  3  3  3  3  3  3  3  3  3  1
756  763  762  759  754  746  735  723  707  689  670  648
622  596  569  539  509  477  445  412  380  348  315  283
254  226  197  168  145  122  99  76  60  44  28  12  7
2  2  2  2  2  2  2  2  2  2  2  2  2  2  2  2  2  2  2
2  2  3  2  2  3  3  3  3  3  3  3  3  3  3  3  3  1
756  763  762  759  754  746  735  723  707  690  670  648
623  597  569  540  511  479  447  414  382  350  318  286
257  228  200  171  148  125  102  80  61  46  31  17  7
2  1  1  2  2  2  2  2  2  2  2  2  2  2  2  2  2  2  2
2  3  3  3  2  3  3  3  3  3  3  3  3  3  3  3  3  1
756  763  762  759  754  746  736  723  708  691  671  649
625  600  572  543  513  482  451  419  387  355  323  291
262  234  205  177  151  128  106  84  63  45  30  17  8
2  1  1  1  2  2  2  2  2  2  2  2  2  2  2  2  2  2  2
2  2  3  2  2  3  3  3  3  3  3  3  3  3  3  3  3  1
756  763  762  759  754  746  737  724  710  693  673  652
628  604  577  548  519  489  457  426  393  362  330  299
268  239  211  184  156  130  107  86  65  47  30  17  8
2  1  1  1  1  1  1  2  2  2  2  2  2  2  2  2  2  2  2
2  2  2  2  2  3  3  3  3  3  3  3  2  2  3  2  3  1
756  763  762  759  754  747  738  726  712  695  676  656
633  608  582  554  525  495  465  433  401  369  337  306
275  244  215  188  161  135  110  87  67  49  32  18  9
2  1  1  1  1  1  1  1  1  2  2  2  2  2  2  2  2  2  2
2  2  2  2  2  2  2  3  3  3  3  2  2  2  2  2  2  1
756  762  762  759  754  748  739  728  714  698  680  661
638  614  588  561  532  503  473  441  409  377  345  313
282  251  220  192  164  138  113  90  69  50  33  20  10
2  1  1  1  1  1  1  1  1  1  1  1  1  1  1  2  2  2  2
2  2  2  2  2  2  2  2  2  2  2  2  2  2  2  2  2  1
756  762  762  759  755  749  740  730  717  701  685  665
643  620  594  568  540  511  480  450  417  385  353  320
288  255  225  195  166  139  115  91  70  51  33  21  9
2  1  1  1  1  1  1  1  1  1  1  1  1  1  1  1  1  2  2
2  1  1  2  2  2  2  2  2  2  2  1  2  2  2  2  2  1
756  762  762  759  756  750  742  732  720  705  688  670
649  626  602  575  547  518  488  457  425  392  358  325
291  259  228  197  168  141  116  91  71  51  35  21  9
2  1  1  1  1  1  1  1  1  1  1  1  1  1  1  1  1  1  1
1  1  1  1  1  2  2  1  1  2  2  1  2  2  2  2  2  1
756  761  762  760  757  751  744  735  723  709  693  674
654  632  608  582  555  526  495  465  430  397  362  328
294  261  229  198  169  142  115  92  71  51  35  21  9
3  1  1  1  1  1  1  1  1  1  1  1  1  1  1  1  1  1  1
1  1  1  1  1  1  1  1  1  1  1  1  1  2  1  1  2  1
756  761  762  760  757  753  746  737  726  713  697  679
660  638  614  589  561  531  501  468  434  399  365  329
295  261  229  198  169  141  115  93  71  51  36  21  9
3  1  1  1  1  1  1  1  1  1  1  1  1  1  1  0  0  1  1
1  1  1  1  1  1  0  1  1  1  0  1  1  2  1  1  2  1
756  760  762  761  758  754  747  740  730  717  702  684
665  643  619  594  566  537  504  471  436  401  364  329
295  260  228  198  168  140  116  93  70  52  36  21  10
3  1  1  1  1  1  1  1  1  1  1  0  0  0  0  0  0  0  0
0  0  0  0  0  0  0  1  0  0  0  1  1  1  1  1  2  1
756  760  763  761  758  755  749  742  733  721  706  688
669  648  624  598  570  539  506  471  436  400  363  328
293  259  227  197  167  140  116  92  69  53  37  21  10
3  1  1  1  1  1  1  1  1  0  0  0  0  0  0  0  0  0  0
0  0  0  0  0  0  0  0  0  0  0  1  1  1  1  1  2  1
756  759  763  761  759  756  751  745  735  724  710  693
673  652  629  601  572  540  507  472  436  399  362  326
291  258  226  195  165  139  115  91  69  53  37  20  11
3  1  1  1  1  1  1  0  0  0  0  0  0  0  0  0  0  0  0
0  0  0  0  0  0  0  0  0  0  0  0  1  1  0  0  2  1
756  759  763  762  760  757  753  746  737  726  712  696
677  655  631  604  574  542  507  471  434  397  361  324
288  256  225  193  163  138  114  90  69  53  36  20  11
3  1  1  1  1  1  1  1  0  0  0  0  0  0  0  0  0  0  0
0  0  0  0  0  0  0  0  0  0  0  0  0  0  0  0  2  1
756  758  762  762  760  758  754  748  739  728  715  699
680  659  633  606  575  542  506  470  433  396  359  322
287  255  223  191  162  138  113  89  69  53  36  20  11
3  1  1  1  1  1  1  1  0  0  0  0  0  0  0  0  0  0  0
0  0  0  0  0  0  0  0  0  0  0  0  0  0  0  0  1  1
756  758  760  762  760  759  755  749  741  730  717  701
682  661  635  606  575  541  505  469  431  394  357  320
286  253  221  189  162  136  111  86  68  52  35  19  11
3  1  1  1  1  1  1  1  0  0  0  0  0  0  0  0  0  0  0
0  0  0  0  0  0  0  0  0  0  0  0  0  0  0  0  1  1
756  757  759  761  761  759  755  750  742  732  719  703
684  662  636  607  576  541  505  468  431  393  355  318
284  252  219  186  160  135  109  84  67  51  34  18  10
3  1  1  1  1  1  1  1  1  1  1  1  0  0  0  0  0  0  0
0  0  0  0  0  0  0  0  0  0  0  0  0  0  0  0  1  1
756  757  757  757  758  758  756  751  743  733  720  704
685  662  637  607  576  541  505  468  430  392  354  316
283  251  218  185  159  134  108  83  66  49  33  16  10
3  1  1  1  1  1  1  1  1  1  1  1  0  0  0  0  0  0  0
0  0  0  0  0  0  0  0  0  0  0  0  0  0  0  0  1  1
756  756  755  754  752  748  744  738  729  717  704  687
667  644  617  586  554  518  483  446  410  373  337  300
269  238  206  175  150  126  101  76  60  44  28  12  6
1  2  2  2  2  1  1  1  1  1  1  1  1  1  1  1  0  0  0
0  0  0  0  0  0  0  0  0  0  0  0  0  0  0  0  0  1
756  757  757  757  758  758  756  751  743  733  720  704
685  662  637  607  576  541  505  468  430  392  354  316
283  251  218  185  159  134  108  83  66  49  33  16  10
3  1  1  1  1  1  1  1  1  1  1  1  0  0  0  0  0  0  0
0  0  0  0  0  0  0  0  0  0  0  0  0  0  0  0  1  1
756  757  759  761  761  759  755  750  742  732  719  703
684  662  636  607  576  541  505  468  431  393  355  318
284  252  219  186  160  135  109  84  67  51  34  18  10
3  1  1  1  1  1  1  1  1  1  1  1  0  0  0  0  0  0  0
0  0  0  0  0  0  0  0  0  0  0  0  0  0  0  0  1  1
756  758  760  762  760  759  755  749  741  730  717  701
682  661  635  606  575  541  505  469  431  394  357  320
286  253  221  189  162  136  111  86  68  52  35  19  11
3  1  1  1  1  1  1  1  0  0  0  0  0  0  0  0  0  0  0
0  0  0  0  0  0  0  0  0  0  0  0  0  0  0  0  1  1
756  758  762  762  760  758  754  748  739  728  715  699
680  659  633  606  575  542  506  470  433  396  359  322
287  255  223  191  162  138  113  89  69  53  36  20  11
3  1  1  1  1  1  1  1  0  0  0  0  0  0  0  0  0  0  0
0  0  0  0  0  0  0  0  0  0  0  0  0  0  0  0  1  1
756  759  763  762  760  757  753  746  737  726  712  696
677  655  631  604  574  542  507  471  434  397  361  324
288  256  225  193  163  138  114  90  69  53  36  20  11
3  1  1  1  1  1  1  1  0  0  0  0  0  0  0  0  0  0  0
0  0  0  0  0  0  0  0  0  0  0  0  0  0  0  0  2  1
756  759  763  761  759  756  751  745  735  724  710  693
673  652  629  601  572  540  507  472  436  399  362  326
291  258  226  195  165  139  115  91  69  53  37  20  11
3  1  1  1  1  1  1  0  0  0  0  0  0  0  0  0  0  0  0
0  0  0  0  0  0  0  0  0  0  0  0  1  1  0  0  2  1
756  760  763  761  758  755  749  742  733  721  706  688
669  648  624  598  570  539  506  471  436  400  363  328
293  259  227  197  167  140  116  92  69  53  37  21  10
3  1  1  1  1  1  1  1  1  0  0  0  0  0  0  0  0  0  0
0  0  0  0  0  0  0  0  0  0  0  1  1  1  1  1  2  1
756  760  762  761  758  754  747  740  730  717  702  684
665  643  619  594  566  537  504  471  436  401  364  329
295  260  228  198  168  140  116  93  70  52  36  21  10
3  1  1  1  1  1  1  1  1  1  1  0  0  0  0  0  0  0  0
0  0  0  0  0  0  0  1  0  0  0  1  1  1  1  1  2  1
756  761  762  760  757  753  746  737  726  713  697  679
660  638  614  589  561  531  501  468  434  399  365  329
295  261  229  198  169  141  115  93  71  51  36  21  9
3  1  1  1  1  1  1  1  1  1  1  1  1  1  1  0  0  1  1
1  1  1  1  1  1  0  1  1  1  0  1  1  2  1  1  2  1
756  761  762  760  757  751  744  735  723  709  693  674
654  632  608  582  555  526  495  465  430  397  362  328
294  261  229  198  169  142  115  92  71  51  35  21  9
3  1  1  1  1  1  1  1  1  1  1  1  1  1  1  1  1  1  1
1  1  1  1  1  1  1  1  1  1  1  1  1  2  1  1  2  1
756  762  762  759  756  750  742  732  720  705  688  670
649  626  602  575  547  518  488  457  425  392  358  325
291  259  228  197  168  141  116  91  71  51  35  21  9
2  1  1  1  1  1  1  1  1  1  1  1  1  1  1  1  1  1  1
1  1  1  1  1  2  2  1  1  2  2  1  2  2  2  2  2  1
756  762  762  759  755  749  740  730  717  701  685  665
643  620  594  568  540  511  480  450  417  385  353  320
288  255  225  195  166  139  115  91  70  51  33  21  9
2  1  1  1  1  1  1  1  1  1  1  1  1  1  1  1  1  2  2
2  1  1  2  2  2  2  2  2  2  2  1  2  2  2  2  2  1
756  762  762  759  754  748  739  728  714  698  680  661
638  614  588  561  532  503  473  441  409  377  345  313
282  251  220  192  164  138  113  90  69  50  33  20  10
2  1  1  1  1  1  1  1  1  1  1  1  1  1  1  2  2  2  2
2  2  2  2  2  2  2  2  2  2  2  2  2  2  2  2  2  1
756  763  762  759  754  747  738  726  712  695  676  656
633  608  582  554  525  495  465  433  401  369  337  306
275  244  215  188  161  135  110  87  67  49  32  18  9
2  1  1  1  1  1  1  1  1  2  2  2  2  2  2  2  2  2  2
2  2  2  2  2  2  2  3  3  3  3  2  2  2  2  2  2  1
756  763  762  759  754  746  737  724  710  693  673  652
628  604  577  548  519  489  457  426  393  362  330  299
268  239  211  184  156  130  107  86  65  47  30  17  8
2  1  1  1  1  1  1  2  2  2  2  2  2  2  2  2  2  2  2
2  2  2  2  2  3  3  3  3  3  3  3  2  2  3  2  3  1
756  763  762  759  754  746  736  723  708  691  671  649
625  600  572  543  513  482  451  419  387  355  323  291
262  234  205  177  151  128  106  84  63  45  30  17  8
2  1  1  1  2  2  2  2  2  2  2  2  2  2  2  2  2  2  2
2  2  3  2  2  3  3  3  3  3  3  3  3  3  3  3  3  1
756  763  762  759  754  746  735  723  707  690  670  648
623  597  569  540  511  479  447  414  382  350  318  286
257  228  200  171  148  125  102  80  61  46  31  17  7
2  1  1  2  2  2  2  2  2  2  2  2  2  2  2  2  2  2  2
2  3  3  3  2  3  3  3  3  3  3  3  3  3  3  3  3  1
756  763  762  759  754  746  735  723  707  689  670  648
622  596  569  539  509  477  445  412  380  348  315  283
254  226  197  168  145  122  99  76  60  44  28  12  7
2  2  2  2  2  2  2  2  2  2  2  2  2  2  2  2  3  3  3
3  3  3  3  3  3  3  3  3  3  3  3  3  3  3  3  3  1
756  763  762  759  754  746  735  723  707  690  670  648
623  597  569  540  510  478  446  413  381  348  316  284
255  226  197  169  145  122  99  77  59  44  29  16  7
2  2  2  2  2  2  2  2  2  2  2  2  2  2  2  2  2  2  2
2  2  2  3  3  3  3  3  3  3  3  3  3  3  3  3  3  1
756  763  762  759  754  746  736  723  708  691  671  649
625  599  571  542  512  480  448  415  383  350  318  286
256  227  199  171  145  122  99  78  57  40  26  14  6
2  1  2  2  2  2  2  2  2  2  2  2  2  2  2  2  2  2  2
2  2  2  3  3  3  3  3  3  3  3  3  3  3  3  3  3  1
756  763  762  759  754  747  737  724  710  693  673  652
628  602  574  545  515  484  451  419  385  353  321  289
257  228  200  172  145  119  97  77  57  39  24  12  6
2  1  2  2  2  2  1  2  2  2  2  2  2  2  2  2  2  2  2
2  2  2  2  3  3  3  3  3  3  3  3  2  2  2  2  3  1
756  763  762  759  755  748  738  726  712  695  676  655
631  605  577  549  518  486  454  421  388  355  323  291
259  228  199  172  145  120  96  74  55  38  24  12  6
2  1  2  2  2  2  2  1  1  2  2  2  2  2  2  2  2  2  2
2  2  2  2  2  2  2  3  3  3  3  3  2  2  2  2  2  1
756  762  762  760  755  749  739  728  714  698  679  657
634  608  580  551  521  489  457  424  391  357  324  291
259  228  198  170  143  118  95  73  54  37  23  13  6
2  1  2  2  2  2  2  1  1  1  1  2  2  2  2  2  2  2  2
2  2  2  2  2  2  2  2  2  2  2  2  2  2  2  2  2  1
756  762  762  760  756  750  741  730  716  700  682  660
637  611  583  555  523  492  459  426  392  358  324  290
258  226  196  168  141  116  93  72  53  36  20  12  4
2  1  1  1  1  1  1  1  1  1  1  1  1  2  2  1  1  2  2
2  1  1  2  2  2  2  2  2  2  2  2  2  2  1  2  2  1
756  762  762  760  756  750  742  732  719  702  684  663
640  614  586  557  526  494  461  427  393  357  322  288
255  223  193  165  138  114  91  69  51  34  20  11  4
2  1  1  1  1  1  1  1  1  1  1  1  1  1  1  1  1  1  1
1  1  1  1  1  2  2  1  1  2  2  1  2  1  1  2  2  1
756  761  762  761  757  751  744  733  721  705  687  666
642  617  589  559  528  495  460  426  390  355  319  285
251  220  190  161  135  111  87  67  49  31  21  11  4
2  1  1  1  1  1  1  1  1  1  1  1  1  1  1  1  1  1  1
1  1  1  1  1  1  1  1  1  1  1  1  1  1  1  1  2  1
756  761  762  761  757  753  746  736  723  708  689  668
645  619  591  560  529  494  459  423  387  351  316  281
247  216  185  157  132  107  84  65  47  31  20  10  3
2  1  1  1  1  1  1  1  1  1  1  1  1  1  1  1  1  1  1
1  1  1  1  1  1  0  1  1  1  1  1  1  1  1  1  2  1
756  760  763  761  758  754  747  738  725  710  692  671
647  621  592  560  527  492  456  419  382  346  311  276
243  211  181  154  128  103  83  64  45  31  20  9  4  2
1  1  1  1  1  1  1  1  1  1  1  1  1  1  0  0  0  0  0
0  0  0  0  0  0  1  1  1  0  1  1  1  1  1  2  1
756  760  763  762  759  755  749  739  727  712  694  673
650  623  592  559  525  488  452  415  378  341  304  271
238  206  178  151  124  100  80  61  41  30  20  9  4  2
1  1  1  1  1  1  1  1  1  1  0  0  0  0  0  0  0  0  0
0  0  0  0  0  0  0  1  0  0  0  1  1  1  1  2  1
756  759  763  762  759  756  750  741  729  714  696  675
650  622  592  557  522  485  448  410  372  335  299  265
232  202  174  146  119  98  78  58  40  29  18  7  4  3
1  1  1  1  1  1  0  0  0  0  0  0  0  0  0  0  0  0  0
0  0  0  0  0  0  0  0  0  0  0  0  1  0  0  2  1
756  759  763  762  760  757  751  742  731  716  698  676
651  622  590  555  519  482  444  406  368  330  295  260
226  198  170  142  115  95  75  56  40  29  17  6  4  3
1  1  1  1  1  1  1  0  0  0  0  0  0  0  0  0  0  0  0
0  0  0  0  0  0  0  0  0  0  0  0  0  0  0  2  1
756  758  762  762  760  758  751  743  732  717  699  677
651  622  589  554  516  479  440  401  363  326  290  255
222  194  165  137  113  93  73  53  39  28  16  5  4  3
1  1  1  1  1  1  1  0  0  0  0  0  0  0  0  0  0  0  0
0  0  0  0  0  0  0  0  0  0  0  0  0  0  0  1  1
756  758  761  763  761  758  752  744  733  719  700  677
651  621  587  551  514  475  436  397  359  322  286  250
219  190  161  132  110  90  70  50  37  26  16  5  4  3
1  1  1  1  1  1  1  0  0  0  0  0  0  0  0  0  0  0  0
0  0  0  0  0  0  0  0  0  0  0  0  0  0  0  1  1
756  757  759  762  761  758  753  745  734  720  701  678
650  620  586  549  512  473  433  394  355  318  282  246
216  187  158  129  108  87  67  47  36  25  14  4  3  3
1  1  1  1  1  1  1  0  0  0  0  0  0  0  0  0  0  0  0
0  0  0  0  0  0  0  0  0  0  0  0  0  0  0  1  1
756  757  758  760  760  758  753  745  734  720  702  678
650  619  585  548  511  471  432  392  352  316  280  243
214  185  155  126  105  85  65  44  34  23  13  2  2  3
2  2  2  1  1  1  1  0  0  0  0  0  0  0  0  0  0  0  0
0  0  0  0  0  0  0  0  0  0  0  0  0  0  0  1  1
756  756  757  758  758  756  753  747  738  726  709  687
661  631  598  561  523  484  444  405  366  329  292  255
225  194  164  134  113  92  70  49  37  25  13  1  1  1
2  2  2  2  1  1  1  1  1  1  1  1  1  1  1  0  0  0  0
0  0  0  0  0  0  0  0  0  0  0  0  0  0  0  0  1
