IESNA:LM-63-2002
[TEST] LTL21459
[TESTDATE] 3/2/2012
[ISSUEDATE] 11/23/2013
[TESTLAB] ACUITY BRANDS LIGHTING CONYERS LAB
[TESTMETHOD] IES LM-41:1998
[MANUFAC] Lithonia Lighting
[LUMCAT] LB 4 32
[LUMINAIRE] LOW PROFILE WRAPAROUND, 15 3/8" X 48", WITH FOUR LAMPS AND PRISMATIC LENS
[LAMPCAT] F32T8
[LAMP] FOUR 32-WATT T8 LINEAR FLUORESCENT
[BALLAST] ICN-4P32-SC
[BALLASTCAT] 
[DISTRIBUTION] DIRECT, SC-0=1.25, SC-90=1.35
[_LAMPPOSITION] 0 , 0
[_LAMPTYPE] T8 LINEAR
[_LAMPWATTAGE] 32
[_LAMPLUMENS] 2800
[_MOUNTING] Surface
[_FAMILY] LB
[_PRODUCTID] 24406980-c56b-4efd-8a19-3b193c10fabf
TILT=NONE
4  2800  1  73  17  1  1  1.27  3.96  0.15
1  1  107
0  2.5  5  7.5  10  12.5  15  17.5  20  22.5  25  27.5  30
32.5  35  37.5  40  42.5  45  47.5  50  52.5  55  57.5  60
62.5  65  67.5  70  72.5  75  77.5  80  82.5  85  87.5  90
92.5  95  97.5  100  102.5  105  107.5  110  112.5  115
117.5  120  122.5  125  127.5  130  132.5  135  137.5  140
142.5  145  147.5  150  152.5  155  157.5  160  162.5  165  167.5  170  172.5  175  177.5  180
0  22.5  45  67.5  90  112.5  135  157.5  180  202.5  225  247.5  270  292.5  315  337.5  360
3042  3046  3036  3020  2998  2970  2934  2891  2840  2782
2717  2644  2563  2474  2374  2257  2116  1946  1748  1548
1354  1170  996  837  700  587  497  426  366  311  259
209  155  100  56  16  2  3  6  8  12  15  19  23  27  30
34  38  40  43  45  48  50  52  54  57  59  58  60  59  59
58  57  56  57  58  58  59  60  61  62  63  64
3042  3071  3063  3051  3032  3008  2978  2942  2900  2852
2798  2737  2668  2591  2498  2381  2234  2046  1834  1604
1372  1154  959  794  663  567  502  457  417  376  331
282  230  179  120  70  45  46  49  52  55  56  60  63  65
67  70  75  80  83  84  84  83  83  83  81  77  72  69  67
65  63  63  60  60  59  58  59  59  60  61  62  64
3042  3073  3070  3062  3051  3036  3020  2997  2970  2934
2889  2836  2774  2701  2606  2485  2330  2138  1915  1679
1449  1234  1050  895  771  677  605  544  487  436  382
326  272  221  160  131  103  96  103  109  115  121  128
135  140  144  146  146  144  140  135  129  124  125  123
119  113  106  100  95  91  88  79  74  68  63  60  58  55
56  58  58  64
3042  3038  3036  3033  3027  3022  3013  2999  2976  2945
2905  2859  2801  2731  2643  2532  2394  2225  2024  1803
1576  1356  1161  995  866  769  695  641  595  544  489
437  374  309  225  207  177  166  174  189  206  218  227
234  237  236  228  213  198  185  176  170  163  155  149
145  141  134  126  117  106  98  93  88  84  79  72  65
61  53  49  58  64
3042  2993  2992  2988  2986  2986  2980  2967  2946  2918
2884  2841  2786  2716  2626  2511  2368  2205  2031  1852
1680  1510  1347  1197  1063  940  842  755  672  595  523
459  394  333  245  236  213  208  217  235  250  260  269
273  273  269  262  240  220  203  192  184  178  168  159
151  145  140  132  121  113  103  96  91  89  75  66  60
54  47  60  70  64
3042  3019  3016  3010  3001  2994  2983  2965  2941  2910
2872  2829  2774  2703  2612  2495  2346  2170  1979  1787
1605  1435  1277  1130  996  872  762  670  592  526  470
416  362  304  225  208  178  167  175  190  206  219  229
236  239  239  228  214  199  187  177  172  166  157  151
145  141  135  126  117  107  99  93  88  85  80  76  70
64  61  58  55  64
3042  3033  3026  3016  3000  2980  2957  2931  2901  2866
2822  2768  2702  2618  2514  2386  2228  2047  1851  1651
1457  1267  1086  919  774  652  560  487  428  382  344
311  279  237  175  137  105  98  104  109  114  120  127
136  139  145  148  147  146  141  134  128  125  126  124
120  115  108  101  97  93  90  86  83  78  72  68  66  63
62  59  57  64
3042  3023  3012  2997  2976  2950  2916  2876  2829  2776
2716  2648  2570  2476  2361  2220  2054  1871  1685  1504
1332  1169  1012  863  728  610  512  432  367  317  280
247  210  166  110  60  40  42  45  48  51  53  56  59  61
64  68  74  79  82  85  86  86  86  86  85  84  82  79  76
74  71  69  66  65  63  63  63  61  60  60  61  64
3042  3045  3036  3021  3000  2973  2940  2899  2851  2795
2730  2657  2572  2474  2356  2217  2061  1893  1723  1558
1407  1272  1145  1025  914  811  715  622  528  431  342
265  201  147  98  46  3  4  6  8  12  15  19  23  26  30
34  36  40  43  45  48  51  53  55  58  59  61  61  62  61
61  59  57  57  56  57  58  60  62  62  63  64
3042  3082  3072  3059  3041  3018  2990  2955  2912  2863
2808  2745  2673  2587  2484  2356  2204  2026  1834  1639
1449  1267  1092  928  777  648  539  451  382  335  304
282  258  222  174  116  73  63  65  66  68  68  70  73
76  79  82  85  92  96  100  102  104  105  105  104  103
101  99  96  94  91  88  85  82  81  80  80  80  79  79
78  64
3042  3083  3072  3062  3051  3036  3018  2995  2968  2935
2893  2842  2780  2706  2614  2498  2354  2176  1973  1763
1558  1363  1177  1001  841  703  588  504  449  417  397
381  359  323  265  202  152  125  122  122  122  127  133
139  145  145  148  150  149  147  143  138  134  133  133
132  128  125  120  116  111  106  101  97  94  90  86  82
80  77  77  74  64
3042  3048  3038  3035  3030  3023  3015  3003  2983  2957
2922  2877  2819  2751  2668  2561  2426  2262  2073  1876
1685  1505  1337  1175  1022  887  775  682  608  552  506
465  426  383  326  279  238  204  195  196  200  206  213
216  217  215  211  201  196  189  181  173  168  159  152
146  145  144  137  131  125  119  112  105  99  94  90
87  83  81  75  69  64
3042  3006  2998  2995  2994  2991  2990  2982  2964  2943
2911  2869  2812  2741  2652  2543  2419  2276  2111  1930
1746  1560  1374  1204  1054  930  832  749  676  613  552
490  432  380  331  289  261  234  224  229  233  235  240
243  240  234  226  214  204  196  188  179  171  166  158
151  144  146  142  136  129  122  115  108  103  100  79
74  74  65  63  78  64
3042  3038  3027  3024  3020  3013  3006  2995  2973  2948
2914  2872  2816  2750  2665  2560  2437  2290  2108  1896
1666  1435  1214  1018  860  742  663  608  568  536  498
455  412  363  303  257  219  187  176  175  175  183  190
194  196  195  192  185  180  175  168  161  154  147  141
137  138  134  129  123  117  111  104  98  92  88  84  81
76  70  65  67  64
3042  3052  3038  3031  3021  3007  2989  2967  2938  2906
2868  2822  2765  2700  2619  2517  2383  2221  2026  1806
1574  1348  1144  966  818  697  601  529  476  434  398
359  321  280  225  172  129  102  97  98  98  99  103  106
110  114  118  121  122  121  118  115  115  116  114  111
109  106  102  97  93  89  87  83  79  74  71  67  64  64
63  62  64
3042  3045  3026  3015  3000  2978  2950  2916  2872  2827
2776  2720  2654  2585  2505  2407  2287  2138  1955  1745
1517  1288  1072  886  736  624  543  483  438  397  357
313  261  210  155  100  54  38  40  41  42  43  45  47
49  52  56  61  63  67  70  73  75  74  74  74  74  73  73
72  70  69  66  63  61  61  61  60  62  63  64  64  64
3042  3061  3036  3020  2998  2970  2935  2891  2835  2776
2711  2639  2557  2470  2370  2254  2113  1944  1746  1546
1352  1169  995  836  699  587  496  425  365  310  259
209  154  99  55  15  2  3  5  8  11  15  19  23  26  30
34  37  40  43  45  48  50  52  54  56  58  58  60  59  58
58  56  56  57  58  58  59  60  61  62  63  64
