IESNA:LM-63-2002
[TEST] LTL29113P28
[TESTDATE] 10/13/2015
[ISSUEDATE] 1/7/2016
[TESTLAB] SCALED PHOTOMETRY
[TESTMETHOD] 
[MANUFAC] Lithonia Lighting
[LUMCAT] IBH 18000LM SD080 ND OZ10 35K 80CRI    
[LUMINAIRE] IBH18,000 Lumens Semi-Diffuse Acylic Lens, Narrow Distribution,OZ10 Driver, 3500K, 80CRI
[LAMPCAT] 
[LAMP] LED
[BALLAST] LED DRIVER
[BALLASTCAT] 
[DISTRIBUTION] DIRECT, SC-0=1.21, SC-90=0.93
[_TOTALLUMINAIRELUMENS] 16400.4
[_LAMPPOSITION] 0 , 0
[_LAMPWATTAGE] 146
[_MOUNTING] 
[_FAMILY] IBH
[_PRODUCTID] fb7294a0-cdf3-4e4c-9ab7-a7ef77c4139e
TILT=NONE
1  -1  1.22782344932182  73  17  1  1  1.08  1.75  0
1  1  146
0  2.5  5  7.5  10  12.5  15  17.5  20  22.5  25  27.5  30
32.5  35  37.5  40  42.5  45  47.5  50  52.5  55  57.5  60
62.5  65  67.5  70  72.5  75  77.5  80  82.5  85  87.5  90
92.5  95  97.5  100  102.5  105  107.5  110  112.5  115
117.5  120  122.5  125  127.5  130  132.5  135  137.5  140
142.5  145  147.5  150  152.5  155  157.5  160  162.5  165  167.5  170  172.5  175  177.5  180
0  22.5  45  67.5  90  112.5  135  157.5  180  202.5  225  247.5  270  292.5  315  337.5  360
7396  7409  7367  7321  7252  7161  7052  6923  6773  6599
6415  6211  5995  5754  5496  5219  4933  4631  4312  3985
3642  3297  2960  2617  2290  1986  1697  1426  1184  965
762  578  414  281  159  67  15  7  10  12  15  16  21  24
27  29  29  31  31  31  36  31  29  29  28  27  26  26  24
24  20  22  22  20  18  17  16  16  16  14  14  15  17
7396  7354  7310  7242  7151  7041  6898  6734  6558  6359
6139  5903  5647  5387  5102  4801  4479  4164  3831  3496
3159  2833  2498  2194  1902  1644  1397  1171  968  787
621  472  342  224  126  54  9  7  9  10  10  10  11  12
13  14  15  16  16  17  21  19  16  16  16  16  16  16  16
12  19  20  18  23  20  19  18  18  17  16  16  16  17
7396  7361  7292  7181  7032  6865  6672  6454  6197  5939
5650  5340  5010  4667  4312  3953  3582  3230  2896  2566
2274  1990  1732  1498  1289  1091  929  780  646  524  420
324  233  158  87  43  13  9  10  10  11  11  12  12  13
14  14  15  16  18  18  18  18  19  19  22  20  20  19  19
18  18  17  17  17  20  22  22  24  20  20  18  17
7396  7374  7282  7138  6957  6743  6503  6230  5922  5597
5234  4850  4458  4062  3679  3306  2945  2617  2310  2034
1774  1549  1332  1149  979  836  714  594  497  410  328
254  185  128  78  37  16  12  13  13  13  14  14  14  16
16  17  18  17  18  22  20  20  22  22  25  23  24  24  24
24  22  22  21  20  20  20  24  22  23  22  22  17
7396  7354  7261  7108  6923  6691  6441  6153  5821  5465
5074  4666  4251  3843  3459  3075  2731  2414  2127  1866
1623  1408  1212  1038  891  758  650  544  450  375  294
232  171  115  69  34  15  12  14  14  14  14  14  14  16
16  16  17  20  19  21  19  20  20  21  23  23  24  24  25
21  24  22  22  22  22  22  24  27  26  21  21  17
7396  7374  7292  7148  6959  6753  6511  6236  5938  5601
5234  4849  4451  4046  3661  3280  2926  2594  2284  2010
1754  1521  1313  1126  957  815  693  580  484  401  315
245  182  121  69  38  17  12  13  13  14  14  16  16  17
18  18  15  18  20  20  19  20  20  22  26  22  22  22  22
21  20  20  19  19  18  20  22  24  24  24  20  17
7396  7387  7332  7225  7084  6915  6716  6497  6242  5978
5671  5359  5018  4665  4299  3922  3555  3199  2849  2522
2213  1937  1677  1446  1239  1051  893  749  619  503  398
301  220  147  81  39  12  10  10  11  12  12  13  14  14
16  17  17  18  22  16  21  22  20  24  30  23  22  22  21
20  20  18  14  17  18  21  21  20  18  18  17  17
7396  7349  7318  7248  7172  7058  6919  6769  6580  6375
6151  5919  5652  5374  5084  4774  4444  4116  3776  3434
3099  2763  2441  2131  1852  1583  1346  1130  931  755
598  455  326  212  121  50  12  9  10  11  12  12  13  14
15  16  16  19  20  25  23  23  23  23  23  28  22  22  21
21  22  23  24  23  22  20  19  18  16  15  16  15  17
7396  7419  7400  7352  7290  7198  7088  6961  6808  6636
6439  6232  6000  5748  5473  5181  4877  4553  4221  3876
3526  3173  2825  2484  2167  1859  1579  1319  1078  857
668  495  339  208  95  25  3  10  12  14  17  18  23  26
22  31  33  34  35  39  39  37  35  35  34  39  31  30  26
27  26  20  23  21  20  18  16  16  14  13  14  14  17
7396  7375  7344  7277  7188  7062  6925  6769  6582  6377
6151  5904  5635  5350  5047  4715  4380  4038  3693  3344
2994  2663  2332  2038  1752  1492  1256  1040  859  686
533  393  274  168  81  25  7  9  11  11  12  12  14  14
16  17  18  21  21  20  33  24  23  23  22  13  21  21  20
22  21  21  17  18  17  15  14  12  12  13  12  14  17
7396  7374  7308  7198  7052  6870  6662  6428  6175  5892
5591  5269  4924  4560  4182  3801  3421  3056  2701  2374
2068  1792  1540  1319  1123  951  798  663  545  433  341
258  182  115  60  23  9  10  10  12  12  13  14  14  16
16  20  20  17  18  31  22  24  24  22  18  23  22  20  20
17  16  14  14  12  17  18  16  15  15  15  16  17
7396  7370  7267  7107  6901  6668  6406  6122  5796  5445
5071  4670  4263  3851  3450  3062  2704  2377  2076  1806
1564  1343  1147  971  830  693  585  485  402  320  258
190  143  85  52  24  9  12  13  14  15  9  16  17  18  18
18  20  18  16  27  20  20  21  20  15  22  22  18  20  18
20  15  14  14  14  18  21  18  18  18  19  17
7396  7335  7214  7032  6805  6554  6257  5941  5590  5207
4814  4388  3965  3555  3161  2792  2460  2160  1884  1636
1412  1210  1025  869  739  623  522  440  358  296  229
182  129  81  50  25  12  12  13  13  14  14  14  14  16
16  16  18  17  15  28  16  20  20  20  14  22  22  21  22
20  19  17  15  15  14  18  20  22  22  21  23  17
7396  7361  7252  7081  6869  6624  6348  6052  5721  5354
4979  4580  4163  3756  3360  2976  2626  2317  2022  1771
1530  1317  1125  961  810  684  575  483  402  324  260
195  142  90  52  23  9  10  12  12  12  13  13  11  15
16  16  18  17  15  28  19  19  20  20  14  21  22  20  20
18  17  16  15  15  14  18  21  21  20  19  18  17
7396  7367  7284  7158  6989  6787  6566  6318  6057  5759
5447  5107  4751  4384  4011  3629  3255  2903  2566  2254
1971  1710  1475  1271  1081  916  764  641  528  429  333
249  181  116  65  24  8  7  9  9  10  10  11  12  12  13
14  15  15  13  26  19  17  17  17  12  18  18  12  16  14
14  13  12  13  17  20  19  16  16  16  15  17
7396  7340  7284  7202  7093  6961  6803  6624  6421  6205
5972  5708  5433  5147  4835  4521  4177  3838  3504  3156
2823  2498  2184  1897  1627  1388  1170  978  799  641
499  377  256  163  81  28  7  7  9  9  10  10  11  12  12
14  15  16  16  14  27  17  16  14  14  9  16  16  15  16
16  18  18  18  20  16  16  14  14  15  14  14  17
7396  7409  7367  7320  7251  7160  7052  6923  6774  6600
6417  6214  5997  5757  5497  5219  4933  4632  4312  3985
3642  3298  2960  2618  2290  1987  1698  1427  1184  965
762  578  414  280  159  66  15  6  10  12  15  16  21  24
27  29  29  31  31  28  41  31  29  29  27  20  26  26  24
24  19  21  20  18  17  16  15  15  14  14  14  14  17
