IESNA:LM-63-2002
[TEST] LTL17138M
[TESTDATE] 12/4/2008
[ISSUEDATE] 11/20/2013
[TESTLAB] ACUITY BRANDS LIGHTING CONYERS LAB
[TESTMETHOD] IES LM-41:1998
[MANUFAC] Lithonia Lighting
[LUMCAT] SM 1 32
[LUMINAIRE] SIDE-MOUNT STRIPLIGHT, 4FT LONG, WITH ONE LAMP
[LAMPCAT] F32T8
[LAMP] ONE 32-WATT T8 LINEAR FLUORESCENT
[BALLAST] ICN-2P32-N
[BALLASTCAT] GEB10IS
[DISTRIBUTION] GENERAL DIFFUSE, SC-0=1.23, SC-90=1.62
[_LAMPPOSITION] 0 , 0
[_LAMPTYPE] T8 LINEAR
[_LAMPWATTAGE] 32
[_LAMPLUMENS] 2800
[_MOUNTING] Surface
[_FAMILY] SM
[_PRODUCTID] 8b3d77cc-36c5-4341-b259-eed8db56c2ab
[_BALLAST_TYPE] ELECTRONIC
[_FIXTURE_TYPE] LINEAR FLUORESCENT SURFACE MOUNT
TILT=NONE
1  2800  1  73  17  1  1  0.19  4  0.19
1  1  35.96
0  2.5  5  7.5  10  12.5  15  17.5  20  22.5  25  27.5  30
32.5  35  37.5  40  42.5  45  47.5  50  52.5  55  57.5  60
62.5  65  67.5  70  72.5  75  77.5  80  82.5  85  87.5  90
92.5  95  97.5  100  102.5  105  107.5  110  112.5  115
117.5  120  122.5  125  127.5  130  132.5  135  137.5  140
142.5  145  147.5  150  152.5  155  157.5  160  162.5  165  167.5  170  172.5  175  177.5  180
0  22.5  45  67.5  90  112.5  135  157.5  180  202.5  225  247.5  270  292.5  315  337.5  360
304  304  303  301  299  295  291  286  280  274  267  259
251  242  233  223  212  201  190  179  167  155  143  131
118  105  92  79  66  53  40  29  17  7  0  0  0  0  0  8
18  30  41  54  67  80  93  107  120  134  147  160  173
186  198  210  221  232  243  253  262  271  279  286  292
298  303  307  311  314  315  316  313
304  305  304  303  302  301  299  297  295  292  289  285
281  277  271  266  260  254  248  242  235  228  221  212
204  194  185  175  166  156  146  136  125  114  106  100
97  99  104  112  123  134  143  153  163  173  182  193
203  213  222  230  238  245  252  259  266  272  278  283
288  292  296  299  302  305  307  309  310  312  313  314
313
304  304  305  307  310  314  317  321  324  327  330  332
334  336  338  340  339  336  333  329  326  322  317  312
308  301  294  287  280  272  263  256  251  249  246  244
239  237  240  243  246  251  258  267  274  282  289  296
303  310  316  322  327  332  337  341  344  344  343  341
339  337  335  332  329  327  323  320  317  314  313  313
313
304  301  303  308  315  322  329  336  344  350  357  364
371  377  380  382  384  385  386  385  385  384  384  383
381  378  372  367  362  356  353  350  349  348  346  345
340  336  337  339  341  343  345  349  355  361  366  370
374  377  380  383  385  387  388  388  388  387  385  381
375  368  360  353  347  339  332  326  319  313  309  308
313
304  301  304  309  317  325  334  343  352  360  369  378
386  391  395  398  401  403  404  405  405  406  408  408
408  405  400  396  391  388  386  384  383  383  381  380
374  370  371  373  374  375  376  379  384  389  393  398
401  403  405  406  408  408  408  407  405  402  399  396
390  381  372  363  355  346  338  329  321  314  309  308
313
304  303  306  310  317  323  331  338  345  352  360  367
374  380  383  384  386  387  387  387  387  387  387  387
384  381  375  369  362  356  351  349  347  346  344  342
337  333  335  337  339  341  344  350  356  362  368  373
377  380  383  386  388  390  390  390  389  388  386  382
376  369  362  355  348  341  334  327  320  315  311  310
313
304  308  308  310  313  316  320  323  327  330  332  335
337  338  340  340  340  338  334  330  326  322  318  313
308  302  295  288  280  272  264  256  251  247  243  240
235  233  237  240  244  250  259  267  275  282  289  296
303  310  316  322  328  333  337  341  343  343  343  342
340  338  336  333  330  328  324  321  318  316  314  314
313
304  307  306  305  304  303  301  300  298  295  292  288
284  279  275  269  263  257  250  244  237  230  223  215
206  196  186  176  166  156  146  136  126  114  105  98
91  95  102  112  123  133  143  153  163  173  184  195
205  215  224  232  240  248  256  263  270  276  282  287
292  296  300  303  306  308  310  312  314  315  316  317
313
304  305  304  302  299  296  292  287  281  275  268  261
253  244  235  225  215  204  192  181  168  156  144  131
118  105  92  79  66  53  40  29  17  7  0  0  0  0  0  6
16  28  39  52  64  77  91  104  118  132  145  158  171
184  196  208  220  231  241  251  260  269  277  284  291
297  302  306  310  313  315  316  313
304  305  304  303  301  298  294  289  285  280  274  268
262  255  247  239  232  224  216  207  198  189  174  156
136  115  94  74  54  35  18  3  0  0  0  0  0  0  0  0
0  6  22  39  57  77  98  119  140  160  178  191  201  211
220  228  237  245  253  261  268  275  281  287  292  297
302  306  309  312  313  314  313
304  304  304  303  301  300  299  297  296  293  291  289
287  284  280  268  250  229  208  186  164  141  120  98
78  57  38  19  3  0  0  0  0  0  0  0  0  0  0  0  0  0
0  0  10  27  46  66  86  107  129  151  173  196  218  240
260  277  287  291  294  297  300  301  304  306  307  309
310  312  313  313  313
304  302  301  300  301  301  302  302  303  303  304  304
296  279  258  237  215  193  170  147  125  103  82  61
40  21  3  0  0  0  0  0  0  0  0  0  0  0  0  0  0  0  0
0  0  0  12  31  51  71  93  114  137  159  182  205  227
249  270  290  306  311  312  311  310  309  309  309  308
308  308  309  313
304  301  302  301  302  303  304  306  308  309  310  306
289  269  248  225  202  179  156  134  111  89  67  46
26  7  0  0  0  0  0  0  0  0  0  0  0  0  0  0  0  0  0
0  0  0  0  18  37  58  79  101  122  145  168  191  214
237  259  280  300  314  317  316  315  313  311  310  308
308  308  308  313
304  304  303  302  302  302  302  303  304  304  305  304
295  277  257  236  214  191  169  146  123  101  79  58
37  18  0  0  0  0  0  0  0  0  0  0  0  0  0  0  0  0  0
0  0  0  8  27  47  68  89  111  134  156  179  202  224
247  268  287  304  311  311  311  310  309  309  309  308
308  309  310  313
304  308  307  306  304  302  301  299  297  294  292  289
286  283  278  263  245  224  202  180  158  135  113  92
70  50  31  13  0  0  0  0  0  0  0  0  0  0  0  0  0  0
0  0  2  19  37  57  77  98  120  142  164  187  209  230
252  270  283  288  291  295  298  300  303  305  307  308
310  312  313  315  313
304  307  306  305  302  299  294  290  285  280  274  268
261  254  246  238  230  222  214  205  196  184  166  146
125  104  83  62  43  25  8  0  0  0  0  0  0  0  0  0  0
0  10  27  44  64  85  106  128  149  168  185  196  206
215  224  234  242  250  259  267  274  281  287  292  297
302  306  310  313  315  316  313
304  304  303  301  299  295  291  286  280  274  267  259
251  242  233  223  212  201  190  179  167  155  143  131
118  105  92  79  66  53  40  29  17  7  0  0  0  0  0  8
18  30  41  54  67  80  93  107  120  134  147  160  173
186  198  210  221  232  243  253  262  271  279  286  292
298  303  307  311  314  315  316  313
