IESNA:LM-63-2002
[TEST] LTL17893
[TESTDATE] 7/29/2009
[ISSUEDATE] 11/20/2013
[TESTLAB] ACUITY BRANDS LIGHTING CONYERS LAB
[TESTMETHOD] IES LM-41:1998
[MANUFAC] Lithonia Lighting
[LUMCAT] SM 1 28T5 LPSM835
[LUMINAIRE] SIDE-MOUNT STRIPLIGHT, 4FT LONG, WITH ONE LAMP
[LAMPCAT] FP28/835/ECO
[LAMP] ONE 28-WATT T5 LINEAR FLUORESCENT (OSRAM)
[BALLAST] QTP2X28T5/UNV PSN
[BALLASTCAT] Electronic Ballast
[DISTRIBUTION] GENERAL DIFFUSE, SC-0=1.27, SC-90=1.4
[_LAMPPOSITION] 0 , 0
[_LAMPTYPE] T5 LINEAR
[_LAMPWATTAGE] 28
[_LAMPLUMENS] 2600
[_MOUNTING] Surface
[_FAMILY] SM
[_PRODUCTID] d4a4b371-fedd-4a3e-803c-46d52e6a4db2
[_BALLAST_TYPE] ELECTRONIC
[_FIXTURE_TYPE] 
[_TERCAT] Striplight                                        
[_TER] 35
TILT=NONE
1  2600  1  73  17  1  1  0.17  3.75  0.08
1  1  30.5
0  2.5  5  7.5  10  12.5  15  17.5  20  22.5  25  27.5  30
32.5  35  37.5  40  42.5  45  47.5  50  52.5  55  57.5  60
62.5  65  67.5  70  72.5  75  77.5  80  82.5  85  87.5  90
92.5  95  97.5  100  102.5  105  107.5  110  112.5  115
117.5  120  122.5  125  127.5  130  132.5  135  137.5  140
142.5  145  147.5  150  152.5  155  157.5  160  162.5  165  167.5  170  172.5  175  177.5  180
0  22.5  45  67.5  90  112.5  135  157.5  180  202.5  225  247.5  270  292.5  315  337.5  360
310  316  314  312  310  307  303  298  292  287  280  273
266  257  248  239  229  219  208  197  185  174  162  149
137  124  111  98  84  72  59  47  34  23  12  4  0  5  12
22  33  44  56  68  80  93  105  118  131  143  156  168
180  192  203  213  224  234  244  254  262  271  278  285
291  297  302  307  310  313  315  316  314
310  312  311  309  306  302  297  292  286  280  274  268
261  255  248  236  219  200  180  160  139  119  99  79
61  42  25  11  4  3  2  2  2  2  1  1  1  1  1  2  2  2
2  12  26  44  62  81  101  123  143  164  184  204  220
230  238  245  252  259  265  272  278  283  288  292  296
300  305  308  312  315  314
310  308  306  303  300  296  293  291  289  280  260  239
216  192  168  144  120  95  73  50  30  12  5  2  2  2
2  2  2  2  2  2  1  1  1  1  1  1  1  1  1  1  1  1  2
2  2  4  17  35  54  75  97  119  142  166  189  212  235
257  275  286  288  290  292  294  296  297  299  301  304
308  314
310  309  308  304  301  300  300  294  272  246  218  191
163  135  107  80  55  31  12  4  1  1  1  1  1  1  1  1
1  1  0  1  1  0  0  0  0  0  0  0  0  0  1  0  1  1  1
1  1  1  7  22  43  65  88  112  137  162  188  214  240
264  287  303  303  303  303  302  302  302  305  310  314
310  305  303  299  297  297  298  281  256  227  199  169
141  112  84  57  32  12  2  0  0  0  0  0  0  0  0  0  0
0  0  0  0  0  0  0  0  0  0  0  0  0  0  0  0  0  0  0
0  0  0  7  25  46  69  93  118  143  170  197  223  249
274  295  303  302  301  300  299  299  301  304  314
310  306  304  301  298  297  298  291  269  243  216  188
160  131  104  77  51  28  9  2  0  0  0  0  0  0  0  0
0  0  0  0  0  0  0  0  0  0  0  0  0  0  0  0  0  0  0
0  0  0  5  21  41  63  86  110  134  160  186  212  238
263  286  301  301  300  300  300  300  300  302  306  314
310  306  304  302  298  294  291  290  288  279  258  236
212  187  162  138  114  90  66  44  23  7  2  1  0  0  0
0  0  0  0  0  0  0  0  0  0  0  0  0  0  0  0  0  0  0
1  2  13  30  50  71  92  115  138  161  185  207  231  253
273  285  287  289  291  292  294  296  297  300  303  307
314
310  309  308  306  303  299  295  289  283  278  272  266
261  255  246  230  211  192  171  150  129  109  89  69
50  31  15  3  1  1  0  0  0  0  0  0  0  0  0  0  0  0
1  8  23  40  57  76  97  117  137  158  178  198  216  226
234  242  249  256  263  269  275  280  285  290  294  298
302  306  309  312  314
310  316  315  313  310  307  303  298  293  287  280  272
265  256  247  237  227  217  206  195  183  171  158  145
132  119  106  93  79  66  54  41  30  19  10  2  0  1  8
15  26  37  49  60  73  86  98  111  124  137  150  163
174  187  199  210  221  232  242  251  261  269  277  285
291  297  302  306  310  313  315  316  314
310  312  312  310  308  306  303  301  298  295  292  288
284  279  275  270  264  259  253  246  237  229  221  213
205  197  188  179  171  162  153  146  139  130  122  116
115  116  121  127  136  146  157  168  180  191  202  213
225  235  245  254  263  272  280  287  294  300  305  309
313  316  319  322  324  325  326  326  326  324  322  320
314
310  309  309  309  311  313  316  319  323  325  329  330
332  332  332  332  332  331  329  327  324  321  316  311
305  300  295  292  289  284  280  275  272  269  265  264
265  265  266  268  272  276  280  285  290  295  301  309
316  322  328  335  341  348  353  358  362  364  366  368
369  369  368  365  361  356  349  343  337  332  326  319
314
310  311  311  314  320  327  334  342  350  357  362  367
372  375  379  381  383  384  384  384  382  381  379  378
378  379  379  378  377  376  375  374  372  371  370  370
369  370  370  371  373  374  375  378  380  381  384  386
388  390  392  395  397  399  401  403  405  406  407  406
405  403  400  396  391  384  375  363  353  343  333  324
314
310  307  308  313  320  329  337  347  357  363  370  377
383  389  393  397  400  402  403  404  404  404  406  408
410  411  412  412  412  412  412  411  411  410  409  408
408  407  407  407  408  410  412  413  414  416  417  417
418  419  419  420  421  421  422  422  422  421  420  418
416  413  408  402  396  387  377  365  352  340  330  320
314
310  308  309  312  317  325  333  341  349  356  360  366
371  376  380  382  384  385  386  386  385  384  383  383
384  385  385  385  384  383  382  382  381  380  378  377
375  372  372  373  375  377  379  381  382  385  387  389
391  392  395  397  399  402  403  405  406  407  407  406
405  403  400  396  389  382  373  361  350  340  330  321
314
310  306  306  307  310  313  316  320  324  328  332  334
336  336  338  338  338  336  335  333  330  326  323  318
314  309  306  303  299  294  290  287  284  281  280  278
274  270  271  274  277  281  285  290  295  301  306  312
318  325  331  337  343  348  354  358  362  366  368  369
370  370  369  367  363  357  350  343  337  331  324  318
314
310  310  309  308  306  304  302  300  298  295  293  290
287  283  280  275  271  265  258  251  244  237  230  223
214  207  199  190  181  172  165  159  150  143  136  132
127  123  126  133  141  150  160  171  182  194  205  217
228  239  248  258  267  275  283  291  298  303  309  313
316  319  321  323  324  325  326  326  325  323  321  318
314
310  316  314  312  310  307  303  298  292  287  280  273
266  257  248  239  229  219  208  197  185  174  162  149
137  124  111  98  84  72  59  47  34  23  12  4  0  5  12
22  33  44  56  68  80  93  105  118  131  143  156  168
180  192  203  213  224  234  244  254  262  271  278  285
291  297  302  307  310  313  315  316  314
