IESNA:LM-63-2002
[TEST] LTL26227
[TESTDATE] 7/22/2014
[ISSUEDATE] 6/8/2016
[TESTLAB] ACUITY BRANDS LIGHTING CONYERS LAB
[TESTMETHOD] IES LM-79-08
[MANUFAC] Lithonia Lighting
[LUMCAT] JHBL 24000 LM WD GL 40K 70CRI BSL722
[LUMINAIRE] JHBL 24000 LM WIDE DISTRIBUTION LENSED 70 CRI ,4000K CCT 219B EMERGENCY FIXTURE; EMR MODE ,4.625W/ 6.203A
[LAMPCAT] NICHIA 219B 4K 70CRI
[LAMP] LED
[BALLAST] PHILIPS ADVANCE 700MA
[BALLASTCAT] 
[DISTRIBUTION] DIRECT, SC-0=2.52, SC-90=1.33
[_TOTALLUMINAIRELUMENS] 1720
[_LAMPPOSITION] 0 , 0
[_LAMPTYPE] LED
[_LAMPWATTAGE] 243.1
[_MOUNTING] PENDANT
[_FAMILY] JHBL
[_PRODUCTID] fbe4612c-4500-4c00-b41c-c534b18d5b1b
TILT=NONE
1  -1  1  73  17  1  1  -1.63  -1.63  0.08
1  1  243.1
0  2.5  5  7.5  10  12.5  15  17.5  20  22.5  25  27.5  30
32.5  35  37.5  40  42.5  45  47.5  50  52.5  55  57.5  60
62.5  65  67.5  70  72.5  75  77.5  80  82.5  85  87.5  90
92.5  95  97.5  100  102.5  105  107.5  110  112.5  115
117.5  120  122.5  125  127.5  130  132.5  135  137.5  140
142.5  145  147.5  150  152.5  155  157.5  160  162.5  165  167.5  170  172.5  175  177.5  180
0  22.5  45  67.5  90  112.5  135  157.5  180  202.5  225  247.5  270  292.5  315  337.5  360
244  235  218  224  299  308  398  330  336  322  319  439
546  596  691  592  691  733  621  565  529  487  430  402
350  301  269  229  218  192  234  161  125  83  49  31
27  25  20  17  15  14  12  10  7  4  3  2  1  0  0  0  0
0  0  0  0  0  0  0  0  0  0  0  0  0  0  0  0  0  0  0
0
244  245  227  224  281  314  379  396  358  321  318  318
418  500  567  605  625  690  708  669  584  539  493  453
383  321  296  251  221  198  208  173  135  108  62  37
30  28  25  21  18  16  13  11  7  4  3  2  1  1  1  0  1
0  0  1  1  1  1  1  1  1  0  1  1  0  0  1  0  0  0  0
0
244  250  246  223  233  259  287  329  347  356  362  331
303  295  304  326  384  423  463  513  552  539  522  492
466  399  333  285  254  214  189  203  129  102  78  58
37  30  29  27  22  17  14  10  6  4  3  2  1  1  1  1  1
1  1  1  1  1  1  1  1  1  0  1  1  1  1  1  1  1  1  1
0
244  249  252  248  235  225  233  231  249  237  252  273
276  263  271  257  253  240  232  224  222  227  217  217
220  221  216  203  187  168  147  130  144  104  74  52
40  32  27  23  18  14  11  8  5  4  2  2  1  1  1  1  1
1  1  1  1  1  1  1  1  1  1  1  1  1  1  1  1  1  1  1
0
244  251  252  252  253  264  255  259  259  249  233  229
225  218  214  204  191  181  174  162  154  146  136  127
116  108  99  90  81  75  67  60  53  48  45  38  28  23
17  14  11  8  6  4  3  2  1  1  1  1  1  1  1  1  1  1
1  1  1  1  1  1  1  1  1  1  1  1  1  1  1  1  0
244  257  276  296  300  309  330  325  320  316  320  319
323  309  306  315  318  317  313  309  310  313  303  288
261  230  198  167  138  111  88  69  56  44  34  33  26
24  15  10  6  5  4  3  2  2  1  1  1  1  1  1  1  1  1
1  1  1  1  1  0  1  1  1  0  1  1  1  1  1  1  1  0
244  264  298  314  342  349  349  357  376  416  453  492
546  609  641  665  688  677  646  634  596  554  504  463
416  372  313  249  195  148  112  82  59  41  27  17  8
6  5  4  3  3  2  2  1  1  1  1  1  0  0  0  0  0  0  0
0  0  0  0  0  0  0  0  0  0  0  0  0  0  0  0  0
244  266  307  329  345  345  386  401  479  573  629  709
726  750  740  705  646  600  579  543  512  457  412  364
285  210  170  140  113  90  71  54  40  30  21  13  5  4
3  3  2  2  2  1  1  0  0  0  0  0  0  0  1  0  0  0  0
0  0  0  0  0  0  0  0  0  0  0  0  0  0  0  0
244  285  301  342  306  389  382  460  582  616  686  728
746  698  645  639  602  535  510  524  472  421  336  256
202  169  138  110  87  66  50  39  30  22  14  6  3  3
2  2  2  2  1  1  0  0  0  0  0  0  0  0  0  0  0  0  0
0  0  0  0  0  0  0  0  0  0  0  0  0  0  0  0
244  294  312  346  301  358  395  378  516  566  617  685
755  759  739  686  645  629  581  546  496  465  410  345
277  214  169  137  109  86  67  50  38  28  19  10  4  3
3  3  2  2  1  1  1  1  1  1  0  1  0  0  0  0  0  0  0
0  0  0  0  0  0  0  0  0  0  0  0  0  0  0  0
244  277  314  311  355  330  303  362  387  374  405  461
483  527  564  605  637  653  642  621  598  565  529  475
422  362  302  239  186  139  102  72  50  33  21  12  7
6  5  4  3  3  2  2  1  1  1  1  1  1  1  0  0  0  0  0
0  0  0  0  0  0  0  0  0  0  0  0  0  0  0  0  0
244  255  268  300  314  306  306  321  313  298  284  284
275  285  271  262  258  247  237  222  215  207  197  180
161  141  123  105  89  75  64  57  51  42  31  23  18  16
12  8  6  4  3  3  2  2  1  1  1  1  1  1  1  0  0  0  0
0  0  1  1  0  0  1  0  0  1  1  1  1  0  1  0
244  255  250  242  244  247  249  243  232  214  207  209
205  207  205  204  194  185  180  172  165  157  148  137
125  116  107  99  92  93  90  80  66  52  41  34  29  22
19  15  12  9  6  4  3  2  1  1  1  1  1  0  1  0  0  0
0  0  0  0  1  0  0  1  0  0  1  1  1  1  0  1  0
244  244  251  243  231  215  248  273  289  304  309  317
309  306  294  279  269  259  274  282  290  308  322  329
330  319  295  272  246  231  213  156  120  93  75  58
40  29  27  24  19  14  9  6  4  3  2  1  1  1  1  0  1
0  0  0  0  0  0  0  0  0  0  1  0  0  1  0  0  1  0  1
0
244  255  234  215  279  310  309  379  389  343  329  332
319  370  437  475  535  565  616  629  606  576  533  476
425  358  318  275  248  239  205  153  128  101  69  42
32  28  30  26  21  17  15  9  4  3  2  1  0  1  0  0  0
0  0  0  0  0  0  0  0  0  0  0  0  0  0  0  0  0  0  0
0
244  243  219  258  325  343  424  353  357  318  341  430
567  546  688  625  722  735  651  593  566  523  468  416
338  306  272  241  239  216  222  161  117  75  44  32
27  26  21  19  17  13  12  10  5  3  2  2  1  0  0  0  0
0  0  0  0  0  0  0  0  0  0  0  0  0  0  0  0  0  0  0
0
244  235  219  224  300  308  398  330  336  322  319  439
546  597  691  592  692  733  622  566  530  488  430  402
350  302  269  229  218  192  234  161  125  83  49  31
27  25  21  17  15  14  11  10  7  4  3  2  1  1  0  0  0
0  0  0  0  0  0  0  0  0  0  0  0  0  0  0  0  0  0  0
0
