IESNA:LM-63-2002
[TEST] 502210P27
[TESTDATE] 6/26/2014
[ISSUEDATE] 12/2/2015
[TESTLAB] SCALED PHOTOMETRY
[TESTMETHOD] 
[MANUFAC] Lithonia Lighting
[LUMCAT] JHBL 12000LM ND GL 50K 70CRI
[LUMINAIRE] JHBL 12000LM NARROW DISTRIBUTION LENSED 70CRI 5000K CCT
[LAMPCAT] LED ARRAY
[LAMP] LED ARRAY
[BALLAST] 120V 700mA
[BALLASTCAT] PHILIPS ADVANCE
[DISTRIBUTION] DIRECT, SC-0=0.86, SC-90=0.83
[_TOTALLUMINAIRELUMENS] 14335
[_LAMPPOSITION] 0 , 0
[_LAMPTYPE] LED
[_LAMPWATTAGE] 120.652012711864
[_MOUNTING] PENDENT
[_FAMILY] JHBL
[_PRODUCTID] 2ca50978-3f48-4a8e-9078-d6200033a52b
[_ABSOLUTE] NOTE: DATA SHOWN IS ABSOLUTE FOR THE SAMPLE PROVIDED.
[_SCALED_TEST] SCALED FROM ABSOLUTE TEST: 502210_P5
[OTHER] COMPARISON TEST ITL - LSI
TILT=NONE
1  -1  0.625719974869962  73  73  1  1  -1.58  -1.58  0.08
1  1  120.65
0  2.5  5  7.5  10  12.5  15  17.5  20  22.5  25  27.5  30
32.5  35  37.5  40  42.5  45  47.5  50  52.5  55  57.5  60
62.5  65  67.5  70  72.5  75  77.5  80  82.5  85  87.5  90
92.5  95  97.5  100  102.5  105  107.5  110  112.5  115
117.5  120  122.5  125  127.5  130  132.5  135  137.5  140
142.5  145  147.5  150  152.5  155  157.5  160  162.5  165  167.5  170  172.5  175  177.5  180
0  5  10  15  20  25  30  35  40  45  50  55  60  65  70
75  80  85  90  95  100  105  110  115  120  125  130  135
140  145  150  155  160  165  170  175  180  185  190  195
200  205  210  215  220  225  230  235  240  245  250  255
260  265  270  275  280  285  290  295  300  305  310  315  320  325  330  335  340  345  350  355  360
12465  12612  12890  12881  12362  11797  10793  9953  9129
8193.001  7718  7208  6707  6431  6038  5626  5309  4990
4772  4605  4278  4036  3770  3330  2955  2609  2416  2169
2006  1919  1573  1327  1141  954  753  562  394  300  259
226  196  171  130  95  68  41  27  18  11  4  2  4  2  4
2  2  4  2  5  4  2  5  4  4  4  5  5  5  4  4  5  7  5
12465  12633  12915  12922  12344  11858  10768  9917  9010
8228.001  7717  7162  6645  6427  6017  5655  5250  5031
4815  4610  4319  3984  3672  3294  2932  2620  2409  2170
1967  1930  1562  1314  1111  940  758  537  408  312  257
226  196  169  128  95  66  39  25  20  11  2  2  2  2  2
2  2  2  2  5  5  4  4  4  5  4  5  4  5  4  4  4  9  5
12465  12630  12926  12992  12426  11931  10761  9949  9043
8095  7633  7126  6693  6395  5955  5614  5179  4979  4722
4574  4262  3975  3717  3303  2957  2614  2408  2170  1974
1935  1564  1329  1111  931  781.0001  539  391  317  260
228  194  169  130  96.00001  68  41  25  18  11  4  2  2
2  4  2  2  4  4  5  4  4  5  4  4  5  5  5  7  4  5  4
7  5
12465  12624  12917  13036  12407  11936  10782  9974  8861
7993  7526  7030  6629  6345  5883  5585  5250  5045  4701
4614  4273  3996  3690  3310  2928  2636  2413  2183  1971
1939  1557  1320  1102  915.0001  747  542  371  321  260
230  198  171  130  96.00001  64  37  25  20  11  4  2  2
4  2  2  4  4  2  5  5  4  5  5  5  4  4  5  5  4  5  4
9  5
12465  12639  12903  13049  12414  11874  10841  9796  8747
7859  7351  6805  6425  6208  5864  5534  5191  5015  4756
4576  4252  3972  3704  3296  2964  2654  2413  2188  1985
1912  1589  1330  1115  915.0001  754  567  375  326  264
232  200  171  130  96.00001  64  39  27  18  9  4  2  2
4  4  2  4  5  4  7  5  4  4  4  4  5  5  4  5  5  4  5
9  5
12465  12630  12894  12985  12401  11792  10791  9726  8628.001
7774  7169  6625  6235  5990  5728  5441  5149  5009  4683
4546  4260  3979  3697  3301  2923  2657  2408  2208  1978
1883  1607  1341  1107  902.0001  754  603  391  323  268
232  198  169  130  96.00001  64  37  25  16  9  2  2  2
2  2  4  4  4  4  5  5  4  4  5  5  4  5  4  5  5  4  4
7  5
12465  12640  12922  12924  12391  11715  10796  9657  8606
7617  7048  6424  5971  5685  5391  5166  4863  4688  4483
4323  4064  3847  3560  3205  2884  2607  2400  2202  1971
1865  1587  1346  1111  890.0001  776.0001  638  426  330
262  230  200  171  130  96.00001  64  37  27  16  12  2
2  4  4  4  2  4  4  4  5  5  2  5  5  5  4  5  5  7  2
5  5  9  5
12465  12639  12953  12851  12334  11693  10709  9628.001
8535  7613  6930  6274  5739  5377  5054  4728  4494  4326
4127  4045  3873  3667  3483  3160  2805  2522  2333  2145
1942  1849  1578  1325  1120  892.0001  785.0001  646  446
333  266  232  200  168  128  96.00001  64  37  27  18  11
5  2  4  4  4  4  2  5  4  5  5  4  5  5  5  5  5  5  7
5  4  5  7  5
12465  12615  12960  12829  12319  11585  10600  9696  8539
7563  6775  6101  5511  5202  4792  4453  4136  3943  3865
3734  3581  3461  3289  2991  2730  2477  2317  2119  1930
1840  1569  1313  1125  911.0001  797.0001  644  464  332
268  232  198  168  128  96.00001  62  37  27  18  12  5
2  4  4  4  4  4  5  2  7  4  4  5  5  5  5  5  5  7  5
5  5  9  5
12465  12621  13006  12822  12264  11501  10490  9536  8576
7560  6820  6126  5569  5152  4719  4284  3982  3791  3677
3697  3567  3397  3246  2991  2730  2425  2272  2097  1906
1823  1575  1309  1129  913.0001  822.0001  647  483  335
269  232  200  168  127  98.00001  62  37  27  20  12  4
2  4  4  4  2  4  4  4  5  5  4  5  5  5  5  5  5  5  5
5  4  9  5
12465  12621  13026  12840  12198  11513  10483  9425  8535
7577  6828  6295  5644  5222  4811  4464  4241  3998  3918
3775  3588  3469  3260  3000  2730  2482  2306  2106  1921
1832  1560  1309  1131  913.0001  844.0001  653  480  325
268  232  200  166  127  95  62  37  27  20  12  4  4  2
2  5  4  4  5  4  5  7  4  4  5  7  5  5  7  5  4  5  5
9  5
12465  12640  13024  12835  12091  11413  10427  9382  8532.001
7594  6905  6408  5912  5498  5174  4913  4565  4357  4193
4091  3881  3684  3417  3112  2839  2525  2331  2133  1955
1853  1578  1298  1134  910.0001  822.0001  633  451  332
266  230  196  166  125  96.00001  61  36  27  18  11  4
2  2  4  4  2  4  5  2  5  7  2  4  5  5  5  5  5  5  5
5  5  9  5
12465  12637  13017  12778  12020  11271  10390  9361  8489
7688  7019  6450  6076  5826  5484  5213  4911  4724  4521
4385  4089  3868  3590  3223  2894  2602  2388  2169  1980
1874  1580  1316  1122  893.0001  813.0001  656  442  335
264  226  198  164  125  96.00001  61  36  25  18  9  2
0  2  2  4  2  2  4  4  7  5  4  5  5  5  5  5  5  7  5
5  4  7  5
12465  12637  13004  12658  11988  11178  10342  9348.001
8480  7759  7132  6645  6277  5981  5675  5405  5163  4911
4692  4553  4232  3972  3601  3260  2953  2648  2416  2190
1981  1894  1562  1311  1124  890.0001  820.0001  635  440
314  264  228  198  166  125  95  61  37  25  18  11  4
2  2  2  4  2  4  5  4  7  5  5  5  5  5  5  5  5  5  4
5  4  9  5
12465  12649  13004  12583  11972  11160  10137  9309  8528
7713  7274  6764  6392  6144  5755  5418  5125  4885  4685
4508  4214  4052  3692  3330  2964  2673  2427  2197  1985
1889  1552  1304  1120  881.0001  803.0001  612  419  301
257  226  198  164  123  93  59  36  25  16  9  4  2  2
2  4  2  4  4  4  5  5  4  4  4  5  5  5  5  5  4  4  5
7  5
12465  12640  12986  12507  11968  11098  10151  9291  8389
7829  7363  6898  6518  6142  5796  5425  5131  4870  4746
4539  4243  3939  3601  3251  2951  2645  2409  2179  1965
1912  1552  1313  1111  872.0001  815.0001  613  389  310
257  228  198  166  123  95  61  37  25  16  9  4  2  2
2  2  2  4  4  2  5  4  2  5  4  4  5  4  5  5  4  5  4
9  5
12465  12667  13004  12444  11929  11098  10101  9291  8389
7772  7339  6873  6516  6103  5789  5459  5106  4856  4697
4474  4264  4062  3681  3283  2959  2666  2422  2190  1996
1921  1541  1300  1109  865.0001  801.0001  585  366  309
260  228  196  164  123  96.00001  59  36  25  18  11  4
2  2  4  4  2  4  4  4  5  4  4  5  5  5  5  5  5  7  4
4  5  7  5
12465  12676  13001  12410  11863  11059  10090  9181  8369.001
7779  7246  6928  6532  6170  5892  5495  5202  4910  4787
4567  4321  3945  3595  3276  2941  2618  2429  2179  2012
1903  1534  1307  1109  860.0001  815.0001  553  375  305
260  228  196  164  123  98.00001  62  37  25  20  11  4
2  2  4  4  4  4  4  4  7  5  4  5  5  5  5  5  5  5  5
5  5  7  5
12465  12683  12974  12418  11843  10998  10119  9106  8275
7660  7280  6841  6534  6083  5817  5448  5152  4904  4735
4514  4319  4062  3658  3269  2978  2623  2418  2188  2012
1892  1535  1318  1099  883.0001  786.0001  551  371  314
259  226  198  168  123  100  61  37  27  20  11  4  4  2
5  4  4  4  4  4  7  5  4  5  7  7  5  5  7  5  5  5  5
9  5
12465  12708  12976  12517  11899  10862  10067  9095  8252.001
7535  7274  6695  6425  5999  5773  5437  5095  4869  4735
4526  4285  3931  3588  3280  2960  2632  2422  2199  2024
1873  1552  1311  1113  913.0001  751  546  362  301  259
226  196  166  127  102  62  39  27  20  12  4  4  4  4
5  2  4  7  4  9  7  5  5  5  7  5  7  7  7  5  5  5  9
5
12465  12717  12969  12519  11833  10827  9983.001  9115
8184  7499  7149  6620  6441  6001  5626  5323  5004  4801
4596  4437  4246  3961  3586  3244  2960  2643  2424  2215
2024  1878  1557  1311  1111  942  724  540  375  301  259
225  194  168  123  100  62  37  25  18  12  5  2  2  4
4  4  4  5  5  5  7  4  5  5  7  5  7  7  5  5  5  7  9
5
12465  12722  12979  12507  11733  10821  9894  9036.001
8109  7451  7075  6573  6342  6058  5566  5314  5038  4831
4617  4403  4259  3936  3556  3231  2948  2636  2432  2245
2051  1856  1593  1320  1131  983  738  549  382  301  259
225  194  168  123  100  62  39  27  18  11  4  4  0  4
4  4  5  5  4  5  7  4  5  5  7  4  5  5  7  5  5  5  9
5
12465  12758  12983  12492  11588  10798  9760  9001  8020
7362  6880  6470  6163  5985  5557  5341  5056  4831  4630
4489  4262  3948  3604  3301  2989  2652  2449  2258  2058
1869  1614  1323  1147  1006  753  544  382  307  260  225
198  168  125  100  64  39  27  18  9  5  2  4  5  5  5
5  5  4  7  7  4  5  7  5  7  7  7  7  5  5  7  9  5
12465  12739  12945  12528  11513  10807  9769  8917  7874
7248  6700  6327  6015  5860  5478  5252  5022  4869  4597
4366  4169  3888  3554  3244  2966  2684  2465  2268  2058
1873  1634  1348  1157  1013  767  535  371  312  260  226
198  168  125  98.00001  62  39  27  18  12  5  4  4  5
5  5  5  7  5  7  7  7  5  7  7  5  5  7  5  5  5  5  11
5
12465  12733  12917  12510  11492  10675  9757  8892.001
7847  7108  6616  6233  5767  5626  5248  5070  4833  4603
4432  4243  4039  3806  3522  3208  2907  2632  2445  2268
2062  1840  1642  1362  1175  1029  778.0001  537  366  319
262  230  200  169  128  100  66  39  27  18  11  5  5  5
4  5  5  5  5  5  9  9  5  7  7  9  7  7  7  7  7  7  7
11  5
12465  12712  12888  12512  11570  10713  9669  8913  7865
7041  6479  6008  5593  5288  4970  4685  4441  4235  4168
3941  3822  3581  3344  3067  2861  2609  2400  2247  2040
1832  1657  1355  1177  1061  772.0001  535  360  314  266
232  202  173  128  98.00001  68  39  27  20  12  7  4  5
5  5  5  7  7  5  9  9  7  9  7  9  7  9  9  7  7  7  7
11  5
12465  12681  12876  12441  11663  10664  9712  8853  7920
7053  6390  5921  5441  4995  4606  4271  4030  3909  3841
3695  3592  3424  3226  3046  2791  2554  2383  2247  2019
1821  1641  1364  1202  1084  760  528  369  312  269  237
202  173  134  100  68  41  29  20  12  7  5  4  7  7  4
7  7  5  11  9  5  7  7  9  9  9  7  9  9  7  9  12  5
12465  12694  12894  12419  11706  10679  9718  8878  7897
7073  6445  5892  5357  4943  4608  4161  3931  3770  3658
3579  3497  3371  3173  2959  2802  2559  2354  2226  2010
1810  1628  1380  1214  1086  744  519  380  325  269  237
203  171  136  98.00001  66  41  30  20  12  5  7  5  7
7  5  7  7  7  11  9  7  9  9  9  9  9  9  9  7  9  9  12
5
12465  12710  12945  12432  11631  10725  9807.001  8856
8030  7162  6502  5944  5441  5122  4715  4382  4107  3943
3834  3675  3595  3410  3235  3021  2796  2595  2359  2254
2024  1817  1628  1412  1254  1086  724  498  366  330  268
239  203  173  136  98.00001  68  41  30  21  12  7  7  5
5  7  5  5  7  5  9  7  7  9  9  9  9  11  9  9  7  9  7
12  5
12465  12737  12949  12426  11506  10686  9780  8940.001
8000  7126  6645  6117  5651  5354  4988  4708  4437  4287
4089  3995  3863  3649  3403  3149  2869  2671  2440  2297
2062  1835  1612  1420  1289  1081  703  482  353  323  268
235  202  169  136  98.00001  68  41  27  20  12  5  4  5
7  7  5  5  7  7  9  9  7  7  9  9  7  9  9  9  9  9  7
12  5
12465  12751  12901  12343  11390  10602  9792  8938  8073
7273  6827  6347  5840  5700  5332  5108  4920  4660  4476
4323  4055  3806  3517  3233  2968  2736  2488  2338  2072
1835  1639  1428  1314  1022  692  460  342  316  266  235
202  169  134  96.00001  68  41  29  20  12  5  4  5  7
5  5  7  7  7  9  7  7  9  9  9  7  9  9  9  7  7  7  11
5
12465  12747  12847  12243  11385  10606  9807.001  8967
8046  7365  6991  6499  6129  5980  5607  5330  5111  4918
4688  4442  4221  3973  3654  3354  3071  2789  2527  2358
2060  1835  1637  1441  1354  972  676  455  328  298  259
232  198  168  132  95  64  43  25  18  12  5  4  4  5  5
5  5  5  5  7  7  7  7  5  7  7  7  9  7  7  5  7  11  5
12465  12744  12792  12195  11442  10620  9846  8986  8266
7615  7212  6686  6313  6056  5787  5427  5257  4979  4678
4510  4269  3963  3649  3365  3094  2803  2543  2370  2072
1849  1632  1457  1355  942  671  471  325  292  259  228
198  166  132  98.00001  64  41  27  18  11  4  4  5  5
5  5  5  5  5  7  7  5  7  7  7  5  7  7  7  5  7  7  11
5
12465  12731  12790  12175  11454  10595  9939  9093  8400
7588  7337  6894  6449  6233  5789  5437  5157  4924  4678
4439  4285  4000  3663  3383  3092  2837  2545  2358  2044
1824  1621  1475  1359  908.0001  658  473  326  289  251
226  196  164  130  96.00001  64  43  25  16  11  4  4  2
5  4  4  5  5  4  5  7  5  7  5  7  7  7  7  7  5  5  7
9  5
12465  12737  12794  12155  11467  10607  9960  9174  8417.001
7674  7404  6994  6534  6274  5901  5482  5279  4988  4765
4512  4287  3982  3656  3397  3117  2802  2550  2359  2049
1824  1632  1489  1384  910.0001  669  478  332  285  250
223  196  164  132  98.00001  62  41  25  16  9  4  2  4
4  4  4  5  5  4  7  5  4  5  5  7  7  5  7  5  5  5  5
9  5
12465  12742  12767  12107  11499  10697  10101  9215  8369.001
7688  7415  7071  6532  6374  5956  5530  5239  5015  4797
4544  4376  4025  3679  3419  3144  2825  2543  2384  2037
1796  1625  1512  1373  906.0001  660  492  330  282  246
223  198  162  128  98.00001  64  41  23  16  11  2  4  2
4  4  4  2  5  4  7  5  2  5  5  5  5  7  5  7  5  5  4
9  5
12465  12739  12765  12155  11565  10722  10142  9243  8451
7802  7417  7069  6586  6311  6019  5523  5336  5068  4888
4601  4375  3980  3700  3413  3133  2811  2552  2350  2078
1814  1635  1507  1387  936  669  492  346  287  248  221
198  166  132  98.00001  64  41  25  14  9  4  4  2  4  4
2  5  5  4  7  7  4  5  5  7  7  5  5  5  5  5  5  9  5
12465  12751  12756  12152  11613  10738  10083  9238  8401.001
7886  7474  7064  6572  6245  6033  5544  5318  5018  4811
4574  4357  4025  3695  3413  3158  2814  2577  2318  2147
1815  1630  1527  1389  967  658  480  342  284  248  223
200  166  132  100  66  41  25  16  9  4  4  4  4  4  4
4  5  4  5  5  4  5  5  5  5  5  5  5  5  5  5  9  5
12465  12755  12767  12214  11608  10809  10072  9247.001
8407  7797  7380  7083  6572  6206  5953  5461  5198  4927
4769  4560  4301  4004  3693  3438  3121  2825  2600  2313
2172  1833  1634  1548  1430  997  669  480  342  291  250
225  202  166  132  100  68  41  25  16  11  4  4  4  4
4  4  4  5  4  7  7  5  5  5  7  5  7  7  7  5  7  5  9
5
12465  12787  12781  12284  11578  10827  10014  9202  8385.001
7845  7360  7028  6602  6215  5919  5421  5254  4935  4694
4485  4264  4002  3651  3408  3158  2875  2600  2322  2176
1826  1612  1537  1453  1031  679  471  330  289  248  226
200  168  134  100  66  39  25  16  11  4  2  4  4  5  4
5  4  4  7  7  5  5  5  5  5  7  7  7  5  7  5  11  5
12465  12772  12771  12339  11645  10827  9978  9099  8273.001
7717  7198  6877  6465  6163  5919  5437  5220  4988  4762
4546  4335  4032  3711  3422  3114  2868  2595  2367  2192
1851  1612  1530  1484  1054  704  471  330  282  251  234
202  171  136  98.00001  66  39  25  16  9  4  4  4  4  5
4  5  7  4  7  7  5  7  5  7  7  7  9  7  7  5  7  9  5
12465  12762  12787  12364  11674  10857  9907  9027  8241.001
7618  7107  6661  6379  6058  5803  5468  5275  5002  4785
4498  4294  3980  3674  3392  3157  2862  2595  2365  2169
1883  1619  1541  1503  1086  722  474  321  278  253  239
200  171  136  100  66  39  23  16  9  4  4  4  4  4  4
5  5  4  7  5  5  5  7  5  7  5  7  7  5  5  5  9  5
12465  12726  12822  12387  11701  10852  9898  9022  8154
7508  7016  6563  6137  5874  5594  5289  5127  4835  4683
4421  4227  3932  3610  3326  3103  2825  2591  2367  2169
1905  1632  1516  1496  1115  733  478  323  280  259  244
202  171  136  102  66  39  25  16  11  2  4  2  4  5  4
5  5  5  7  7  5  5  7  5  7  7  5  7  5  5  7  11  5
12465  12710  12822  12437  11708  10911  9969  8999  8168
7456  6782  6318  5801  5489  5300  4940  4690  4519  4287
4102  3941  3684  3440  3237  3023  2782  2557  2329  2119
1908  1632  1509  1518  1125  737  485  319  284  260  246
203  171  137  100  64  37  25  16  9  0  2  2  4  5  4
5  4  4  7  5  4  7  5  7  5  5  7  4  5  5  5  7  5
12465  12692  12831  12512  11754  11000  9974  9086  8184
7358  6666  6154  5628  5259  4960  4530  4348  4071  3906
3818  3702  3540  3303  3107  2923  2718  2536  2322  2106
1885  1655  1511  1514  1143  753  487  321  291  264  253
203  175  139  102  66  37  25  18  9  5  4  4  5  5  4
4  5  5  7  7  5  5  5  5  7  5  9  7  7  7  7  9  5
12465  12671  12829  12549  11806  11059  10090  9120  8255
7337  6632  6092  5528  5020  4642  4198  3968  3784  3652
3618  3479  3385  3190  2996  2800  2629  2488  2277  2076
1887  1648  1509  1518  1141  753  499  330  294  264  250
203  173  139  102  64  37  27  16  9  2  4  2  4  4  4
4  4  4  7  5  5  5  7  5  5  7  5  7  4  5  5  9  5
12465  12664  12853  12592  11813  11037  10174  9181  8248
7342  6627  6056  5539  5006  4640  4264  4050  3795  3652
3611  3524  3429  3201  3023  2866  2652  2479  2260  2062
1901  1632  1511  1527  1143  751  499  323  287  264  248
207  177  139  102  62  37  25  16  7  4  2  2  4  5  4
5  5  4  7  5  5  7  5  7  7  7  5  7  7  7  7  9  5
12465  12635  12851  12637  11834  10984  10188  9150  8330
7501  6755  6208  5705  5181  4833  4519  4285  4104  4005
3865  3706  3576  3349  3132  2903  2682  2513  2284  2087
1901  1648  1518  1512  1141  742  494  323  287  260  246
205  173  137  102  62  36  23  16  9  4  4  4  4  4  4
5  5  4  7  5  5  5  5  5  5  7  7  7  5  5  5  11  5
12465  12607  12844  12637  11849  11003  10051  9231.001
8394  7429  6880  6349  5906  5495  5227  4988  4790  4483
4359  4212  4029  3782  3497  3231  3007  2752  2525  2306
2115  1894  1644  1516  1514  1145  729  476  316  280  257
243  202  171  136  98.00001  62  37  23  16  7  4  2  4
4  4  4  4  5  4  7  7  4  5  5  5  7  7  7  7  5  5  5
9  5
12465  12573  12837  12630  11906  11030  10090  9282  8432
7536  7050  6522  6233  5917  5577  5322  5156  4803  4696
4430  4198  4002  3672  3324  3078  2793  2577  2333  2122
1899  1634  1505  1486  1140  731  476  314  280  255  241
200  168  137  98.00001  61  37  21  14  7  4  2  0  2  4
4  4  4  4  5  5  4  4  5  4  5  4  7  7  4  5  5  7  5
12465  12542  12817  12646  11924  11053  10087  9332.001
8621  7790  7312  6723  6424  6145  5760  5584  5277  4918
4803  4546  4325  4041  3699  3388  3087  2780  2548  2313
2122  1873  1605  1502  1482  1116  710  485  321  284  257
239  196  166  134  96.00001  61  37  23  14  7  2  2  2
2  4  2  2  4  2  4  5  2  5  5  4  5  5  5  5  4  4  5
7  5
12465  12526  12812  12722  11941  11064  10138  9475  8772.001
7882  7437  6912  6643  6260  5865  5626  5304  4936  4758
4496  4323  4077  3734  3376  3124  2818  2547  2293  2106
1853  1589  1505  1462  1115  703  490  330  287  251  235
194  166  134  95  61  37  21  14  7  0  0  2  2  4  0  4
4  2  4  4  2  4  4  4  5  4  5  5  4  4  4  7  5
12465  12517  12817  12726  11897  11084  10299  9580.001
8742  8018  7629  7042  6748  6375  5826  5626  5238  4904
4710  4496  4289  3979  3683  3365  3051  2748  2520  2288
2065  1828  1591  1514  1469  1095  687  501  344  291  251
234  194  166  132  96.00001  62  37  23  14  7  0  0  2
2  4  0  2  4  4  5  5  4  4  4  4  4  4  5  4  2  5  4
7  5
12465  12503  12817  12712  11915  11101  10340  9696  8801
8173  7679  7135  6777  6452  5972  5639  5273  4935  4735
4567  4321  4066  3750  3397  3098  2778  2515  2258  2085
1817  1598  1527  1480  1074  685  512  350  285  248  232
194  166  130  95  61  36  21  14  7  2  0  0  0  2  2  0
4  2  5  2  2  4  2  4  5  4  5  4  2  2  4  7  5
12465  12496  12829  12712  11948  11155  10351  9725  8742
8227  7683  7194  6754  6367  5910  5701  5247  5018  4815
4583  4328  4013  3718  3379  3066  2729  2515  2272  2060
1798  1593  1528  1482  1043  665  523  351  285  246  232
191  166  128  95  62  37  23  16  7  4  2  2  2  2  2  2
2  2  4  5  4  4  2  4  5  4  4  5  4  4  4  7  5
12465  12476  12815  12714  11950  11183  10392  9709  8706
8243  7647  7114  6762  6363  5958  5671  5305  5061  4815
4583  4357  4045  3763  3415  3098  2745  2493  2268  2063
1803  1593  1523  1471  1031  678  526  341  280  250  234
193  166  132  96.00001  61  36  25  16  7  2  2  0  2  2
2  2  2  2  4  4  2  4  4  4  5  5  5  5  4  4  4  7  5
12465  12464  12813  12676  11988  11276  10502  9700.001
8712  8182  7667  7089  6732  6283  5962  5591  5220  4993
4740  4555  4298  3991  3740  3369  3071  2718  2502  2268
2074  1799  1593  1521  1480  1022  685  519  353  294  253
234  191  166  130  95  62  37  23  14  7  2  2  2  2  0
4  4  4  4  5  4  4  4  4  4  5  4  5  4  4  5  5  7  5
12465  12451  12842  12692  12063  11278  10474  9734  8806
8123  7517  7037  6657  6217  5951  5502  5207  4917  4656
4482  4260  3975  3711  3367  3080  2729  2486  2265  2085
1812  1578  1503  1480  1024  692  521  360  301  257  232
193  164  128  96.00001  62  37  21  14  7  2  2  0  2  2
0  2  5  2  5  5  2  4  4  4  2  5  2  4  2  4  5  7  5
12465  12457  12860  12728  12064  11305  10458  9641  8662
7952  7333  6886  6515  6085  5908  5466  5184  4869  4697
4508  4271  3989  3747  3376  3051  2737  2497  2265  2054
1817  1593  1493  1459  1022  704  530  367  307  260  235
193  166  132  95  61  37  23  14  9  2  2  2  2  4  2  4
4  2  5  4  4  4  4  4  4  5  4  4  4  4  4  7  5
12465  12457  12865  12821  12134  11381  10376  9480  8523
7754  7246  6688  6390  6037  5730  5380  5168  4897  4708
4503  4227  3973  3699  3362  3035  2729  2490  2283  2069
1828  1612  1471  1411  1056  733  535  371  314  262  237
200  169  130  96.00001  61  37  25  14  7  0  2  2  2  2
2  4  4  4  5  4  2  4  4  4  5  4  5  5  4  4  2  9  5
12465  12460  12876  12917  12252  11389  10388  9521  8494
7667  6928  6511  6090  5778  5539  5207  4936  4719  4573
4362  4114  3897  3656  3324  3003  2702  2474  2261  2062
1805  1598  1455  1396  1086  754  535  382  309  262  239
202  168  134  96.00001  62  36  25  14  9  2  2  2  4  4
0  4  4  4  5  5  4  5  4  5  5  5  7  5  5  4  5  9  5
12465  12448  12860  12972  12323  11483  10529  9498  8414
7611  6871  6320  5864  5496  5190  4836  4635  4382  4227
4082  3913  3722  3501  3192  2880  2638  2386  2229  2046
1780  1609  1439  1359  1131  765  544  383  296  264  243
203  168  130  98.00001  62  36  23  16  9  2  2  2  0  4
2  4  2  2  5  4  4  4  4  4  5  5  5  5  4  4  4  7  5
12465  12444  12865  12992  12360  11547  10566  9413  8439
7531  6680  6183  5625  5150  4861  4512  4203  3964  3909
3788  3626  3476  3303  3062  2798  2559  2329  2185  2033
1766  1582  1448  1327  1175  786.0001  558  360  298  264
243  207  171  132  98.00001  62  37  25  18  9  4  2  2
4  4  2  4  4  4  5  5  4  4  4  4  4  4  5  7  4  5  5
7  5
12465  12473  12885  13001  12401  11513  10577  9484.001
8435  7511  6730  6144  5541  4981  4599  4260  3904  3700
3586  3540  3447  3378  3221  2989  2739  2498  2283  2126
2013  1766  1573  1436  1300  1186  792.0001  565  353  309
269  243  207  171  132  96.00001  62  39  27  16  9  4
0  2  0  2  4  2  2  2  5  4  4  5  4  4  4  4  4  5  5
4  5  9  5
12465  12487  12878  12960  12434  11479  10622  9507  8475
7467  6807  6051  5502  5077  4701  4269  3936  3820  3677
3613  3486  3310  3158  2951  2707  2490  2281  2147  2033
1776  1578  1416  1261  1195  795.0001  556  362  312  266
244  207  169  134  98.00001  64  39  25  18  11  4  0  2
2  4  2  4  4  4  5  4  4  4  5  5  5  5  5  5  5  5  4
7  5
12465  12533  12910  12931  12459  11478  10550  9509  8548.001
7522  6820  6163  5651  5291  4901  4549  4307  4168  3970
3888  3743  3547  3365  3128  2823  2527  2311  2151  2019
1801  1576  1389  1223  1156  797.0001  539  351  296  262
243  200  166  132  96.00001  62  39  25  16  9  2  0  2
2  2  0  0  2  4  5  4  2  4  2  4  4  5  5  5  4  4  4
7  5
12465  12557  12894  12903  12464  11499  10622  9616  8587
7538  6993  6368  5892  5614  5327  4997  4733  4544  4371
4184  4000  3747  3524  3187  2903  2609  2372  2176  2047
1823  1605  1377  1189  1140  817.0001  540  350  300  260
241  202  168  132  96.00001  62  41  25  16  9  2  0  0
0  2  2  0  4  2  5  4  2  4  4  5  4  5  5  5  4  4  4
7  5
12465  12562  12879  12894  12503  11553  10561  9528  8665
7693  7135  6586  6172  5871  5707  5338  5093  4895  4685
4446  4253  3898  3665  3315  2959  2618  2388  2190  2046
1830  1603  1352  1172  1099  831.0001  533  348  298  253
235  196  164  130  95  62  39  23  14  9  2  0  0  2  2
0  0  4  2  4  5  2  4  4  4  4  2  4  4  2  2  2  5  5
12465  12573  12878  12881  12471  11529  10575  9609  8744
7820  7333  6823  6383  6112  5814  5491  5225  4920  4699
4515  4294  4029  3743  3351  2975  2648  2434  2190  2047
1862  1609  1354  1154  1072  844.0001  539  350  291  255
234  198  168  130  95  64  41  25  16  9  2  0  0  2  2
0  4  4  2  5  4  2  2  4  2  4  4  4  5  4  4  4  7  5
12465  12567  12865  12899  12430  11540  10636  9757  8837
7995  7488  7032  6531  6222  5923  5457  5202  4906  4746
4498  4276  3947  3659  3276  2948  2598  2416  2172  2015
1864  1612  1345  1143  1031  804.0001  546  358  292  257
228  194  166  128  95  66  41  25  16  9  0  0  0  0  0
0  2  4  2  4  4  0  4  4  4  4  4  4  4  2  2  2  7  5
12465  12594  12865  12879  12432  11627  10739  9826  8845
8096  7594  7194  6611  6306  5949  5518  5245  4906  4703
4505  4248  4061  3727  3347  2969  2607  2425  2169  2008
1878  1596  1329  1145  1009  772.0001  562  360  294  257
230  194  166  127  95  68  41  25  18  11  4  0  0  2  4
0  4  2  2  4  4  0  4  2  4  4  4  4  4  4  4  4  5  5
12465  12603  12860  12869  12418  11692  10802  9896  9018
8146  7699  7192  6607  6406  6010  5462  5295  4920  4754
4537  4262  3934  3645  3235  2902  2584  2409  2161  1983
1874  1585  1321  1140  975  749  560  362  298  255  226
194  168  128  96.00001  66  39  25  18  9  4  2  0  2  2
0  2  2  0  4  4  2  4  2  4  2  4  4  4  2  4  4  5  5
12465  12612  12890  12881  12362  11797  10793  9953  9129
8193.001  7718  7208  6707  6431  6038  5626  5309  4990
4772  4605  4278  4036  3770  3330  2955  2609  2416  2169
2006  1919  1573  1327  1141  954  753  562  394  300  259
226  196  171  130  95  68  41  27  18  11  4  2  4  2  4
2  2  4  2  5  4  2  5  4  4  4  5  5  5  4  4  5  7  5
