IESNA:LM-63-2002
[TEST] LTL25405P1
[TESTDATE] 4/3/2014
[ISSUEDATE] 9/10/2014
[TESTLAB] SCALED PHOTOMETRY
[TESTMETHOD] 
[MANUFAC] Lithonia Lighting
[LUMCAT] 2VTL2R 20L LP840
[LUMINAIRE] 2VTL2R 2'x2' relight kit, 2000 norminal lumens, 4000K
[LAMPCAT] Nichia 757D 4000K
[LAMP] LED
[BALLAST] eldoLED ECOdrive 361/A (750mA-parallel)
[BALLASTCAT] 
[DISTRIBUTION] DIRECT, SC-0=1.22, SC-90=1.31
[_TOTALLUMINAIRELUMENS] 2023.1
[_LAMPPOSITION] 0 , 0
[_LAMPTYPE] LED
[_LAMPWATTAGE] 19.5799999237061
[_MOUNTING] RECESSED CEILING
[_FAMILY] VTLR LED
[_PRODUCTID] b98cb958-213c-43f6-9fa1-5c53641d5b29
TILT=NONE
1  -1  1.1  73  17  1  1  1.77  1.79  0
1  1  19.58
0  2.5  5  7.5  10  12.5  15  17.5  20  22.5  25  27.5  30
32.5  35  37.5  40  42.5  45  47.5  50  52.5  55  57.5  60
62.5  65  67.5  70  72.5  75  77.5  80  82.5  85  87.5  90
92.5  95  97.5  100  102.5  105  107.5  110  112.5  115
117.5  120  122.5  125  127.5  130  132.5  135  137.5  140
142.5  145  147.5  150  152.5  155  157.5  160  162.5  165  167.5  170  172.5  175  177.5  180
0  22.5  45  67.5  90  112.5  135  157.5  180  202.5  225  247.5  270  292.5  315  337.5  360
622  621  617  614  609  602.9999  594  584  572  559  544
528  511  493  474  453  432  411  390  368  346  323  300
277  253  229  205  182  158  135  112  90  69  50  32  17
5  0  0  0  0  0  0  0  0  0  0  0  0  0  0  0  0  0  0
0  0  0  0  0  0  0  0  0  0  0  0  0  0  0  0  0  0
622  627  625  622  617.9999  612  604  594  582  569  556
540  524  506  487  467  447  426  405  384  362  339  316
293  269  246  222  199  176  153  130  107  85.99999  65
45  25  8  0  0  0  0  0  0  0  0  0  0  0  0  0  0  0  0
0  0  0  0  0  0  0  0  0  0  0  0  0  0  0  0  0  0  0
0
622  630  629  627  624  619  612  602.9999  592.9999  581
569  556  542  526  509  492  473  454  434  414  393  371
348  325  301  278  255  232  209  187  164  140  116  90
64  33  8  0  0  0  0  0  0  0  0  0  0  0  0  0  0  0  0
0  0  0  0  0  0  0  0  0  0  0  0  0  0  0  0  0  0  0
0
622  631  631  630  627  622.9999  617  610  601  591  581
569  556  543  528  512  495  477  458  438  419  399  378
355  333  310  288  265  243  221  195  169  140  107  70
33  6  0  0  0  0  0  0  0  0  0  0  0  0  0  0  0  0  0
0  0  0  0  0  0  0  0  0  0  0  0  0  0  0  0  0  0  0
622  630  630  629  626  622.9999  617  610  601  592  582
571  559  546  531  515  499  481  464  445  426  406  385
363  342  321  299  278  257  232  206  178  146  109  68
29  2  0  0  0  0  0  0  0  0  0  0  0  0  0  0  0  0  0
0  0  0  0  0  0  0  0  0  0  0  0  0  0  0  0  0  0  0
622  627.9999  627.9999  626  622.9999  619  612.9999  605
595  585  575  562  549  533  517  500  483  464  447  430
408  387  365  343  321  298  276  253  232  209  184  157
129  96  60  25  3  0  0  0  0  0  0  0  0  0  0  0  0  0
0  0  0  0  0  0  0  0  0  0  0  0  0  0  0  0  0  0  0
0  0  0  0
622  626  625  622  617.9999  612  602.9999  594  582.9999
570  557  544  530  512  494  475  455  435  415  395  374
353  330  307  284  261  238  215  192  170  148  125  101
75.99999  48  20  2  0  0  0  0  0  0  0  0  0  0  0  0
0  0  0  0  0  0  0  0  0  0  0  0  0  0  0  0  0  0  0
0  0  0  0  0
622  622  620  617  611  602.9999  592.9999  582  569  557.9999
544  525  508  489  469  448  428  407  385  364  342  320
297  274  250  227  204  181  158  136  114  92  72  52
32  14  2  0  0  0  0  0  0  0  0  0  0  0  0  0  0  0  0
0  0  0  0  0  0  0  0  0  0  0  0  0  0  0  0  0  0  0
0
622  615  612  606  597.9999  587.9999  577  565  552  537
520  503  484  465  445  424  404  382  359  337  315  291
268  244  221  198  174  151  128  105  83  62  43  26  12
3  0  0  0  0  0  0  0  0  0  0  0  0  0  0  0  0  0  0
0  0  0  0  0  0  0  0  0  0  0  0  0  0  0  0  0  0  0
622  620  616  611  604  594  582.9999  571  559  545  527
510  492  473  453  433  412  392  370  347  325  302  279
256  233  210  186  163  140  118  96  75.99999  56  36
19  5  0  0  0  0  0  0  0  0  0  0  0  0  0  0  0  0  0
0  0  0  0  0  0  0  0  0  0  0  0  0  0  0  0  0  0  0
0
622  622.9999  620  616  609  601  591  580  567.9999  554
540  526  509  491  473  455  436  416  395  374  353  331
309  286  263  241  218  195  172  150  127  104  80.99999
55  28  6  0  0  0  0  0  0  0  0  0  0  0  0  0  0  0  0
0  0  0  0  0  0  0  0  0  0  0  0  0  0  0  0  0  0  0
0  0
622  626  622.9999  619  612.9999  606  597.9999  587.9999
577.9999  567  555  541  527  511  494  478  460  443  425
405  384  363  343  322  299  277  255  233  210  185  159
133  104  73  38  8  0  0  0  0  0  0  0  0  0  0  0  0
0  0  0  0  0  0  0  0  0  0  0  0  0  0  0  0  0  0  0
0  0  0  0  0  0
622  627  625  622  616  611  602.9999  595  585  575  564
551  537  524  509  493  476  459  441  422  403  383  363
342  320  299  277  255  231  205  179  150  119  84  44
9  0  0  0  0  0  0  0  0  0  0  0  0  0  0  0  0  0  0
0  0  0  0  0  0  0  0  0  0  0  0  0  0  0  0  0  0  0
622  629  625  621  616  610  602  592.9999  582.9999  572
560  547  534  519  502  487  469  451  433  414  394  373
352  331  309  287  264  242  220  195  169  143  115  83
48  13  1  0  0  0  0  0  0  0  0  0  0  0  0  0  0  0  0
0  0  0  0  0  0  0  0  0  0  0  0  0  0  0  0  0  0  0
0
622  627  622.9999  619  612.9999  607  597  587  576  562.9999
550  535  519  503  486  468  449  430  410  389  368  346
324  301  278  256  232  210  187  165  142  118  95  70
44  15  2  0  0  0  0  0  0  0  0  0  0  0  0  0  0  0  0
0  0  0  0  0  0  0  0  0  0  0  0  0  0  0  0  0  0  0
0
622  625  620  616  609  602  592  581  569  555  540  523
505  487  468  448  428  407  386  365  342  319  296  273
250  227  203  180  157  134  112  90  69  49  30  12  2
0  0  0  0  0  0  0  0  0  0  0  0  0  0  0  0  0  0  0
0  0  0  0  0  0  0  0  0  0  0  0  0  0  0  0  0
622  621  617  614  609  602.9999  594  584  572  559  544
528  511  493  474  453  432  411  390  368  346  323  300
277  253  229  205  182  158  135  112  90  69  50  32  17
5  0  0  0  0  0  0  0  0  0  0  0  0  0  0  0  0  0  0
0  0  0  0  0  0  0  0  0  0  0  0  0  0  0  0  0  0
