IESNA:LM-63-2002
[TEST] LTL19369
[TESTDATE] 10/20/2010
[ISSUEDATE] 10/18/2015
[TESTLAB] ACUITY BRANDS LIGHTING CONYERS LAB
[TESTMETHOD] IES LM-41:1998
[MANUFAC] Lithonia Lighting
[LUMCAT] W 2 17
[LUMINAIRE] CONTEMPORARY WALL BRACKET, 2FT LONG, WITH TWO LAMPS
[LAMPCAT] f17t8
[LAMP] TWO 17-WATT LINEAR FLUORESCENT
[BALLAST] QTP 2X32T8/UNV ISN SC
[BALLASTCAT] 
[DISTRIBUTION] SEMI-DIRECT, SC-0=1.5, SC-90=1.17
[_LAMPPOSITION] 0 , 0
[_LAMPTYPE] T8 LINEAR
[_LAMPWATTAGE] 17
[_LAMPLUMENS] 1400
[_MOUNTING] Surface
[_FAMILY] W
[_PRODUCTID] d387b8fd-e767-4336-89db-2abc5f5de4c4
[_BALLAST_TYPE] ELECTRONIC
[_FIXTURE_TYPE] LINEAR FLUORESCENT DIRECT/INDIRECT PENDANT MOUNT
TILT=NONE
2  1400  1  73  17  1  1  0.29  1.97  0
1  1  29
0  2.5  5  7.5  10  12.5  15  17.5  20  22.5  25  27.5  30
32.5  35  37.5  40  42.5  45  47.5  50  52.5  55  57.5  60
62.5  65  67.5  70  72.5  75  77.5  80  82.5  85  87.5  90
92.5  95  97.5  100  102.5  105  107.5  110  112.5  115
117.5  120  122.5  125  127.5  130  132.5  135  137.5  140
142.5  145  147.5  150  152.5  155  157.5  160  162.5  165  167.5  170  172.5  175  177.5  180
0  22.5  45  67.5  90  112.5  135  157.5  180  202.5  225  247.5  270  292.5  315  337.5  360
511  521  528  534  539  543  545  547  547  546  543  539
532  522  510  495  477  457  433  407  378  347  315  281
247  214  185  160  138  119  104  91  83  79  77  76  74
72  70  65  60  54  49  52  56  61  66  70  75  79  83  87
91  94  98  101  104  107  110  113  115  117  119  121
122  123  124  124  124  124  123  121  110
511  520  527  533  537  540  541  542  541  540  536  531
524  515  502  487  469  449  425  397  367  336  304  273
241  210  183  158  136  115  97  82  72  68  64  62  61
61  60  58  53  47  45  49  54  59  64  67  72  77  81  85
89  93  96  99  103  106  108  111  113  116  118  119  121
122  122  123  122  122  121  120  110
511  517  522  526  528  528  528  526  523  519  513  506
498  488  475  460  441  419  394  367  336  307  276  246
217  188  160  135  112  92  75  61  51  46  46  46  48
47  42  36  32  35  39  44  49  53  58  63  67  72  76  80
84  88  91  95  98  101  104  107  110  112  114  116  117
119  119  120  120  120  119  119  110
511  514  516  516  515  512  508  503  496  488  478  467
455  441  424  404  383  359  332  304  275  246  218  192
168  145  125  107  91  79  69  60  52  44  37  32  29  22
16  18  22  26  31  36  40  45  50  55  59  64  68  72  76
80  84  88  92  95  98  101  104  107  109  112  113  115
116  117  118  118  118  118  110
511  509  506  503  498  491  484  474  463  451  437  421
403  383  362  338  313  286  257  230  204  180  159  139
121  106  93  82  72  63  56  49  40  31  22  12  1  2  5
9  13  17  22  26  31  36  40  45  50  55  59  64  68  72
76  80  84  87  91  94  97  100  103  105  108  110  112
113  114  115  116  116  110
511  506  499  492  482  472  459  446  431  414  395  376
355  333  307  279  252  227  203  180  157  135  115  96
80  67  58  52  48  43  37  29  19  7  1  1  1  1  1  1
4  8  12  17  21  26  31  35  40  45  50  55  59  64  68
72  76  80  84  88  92  95  99  101  104  106  109  111
112  114  115  116  110
511  504  494  483  470  456  440  423  402  382  362  343
322  296  269  245  221  196  170  145  123  103  86  71
60  53  49  44  37  28  17  4  1  1  1  1  1  1  1  1  1
1  3  8  13  18  23  27  32  37  42  47  52  57  61  66
70  74  79  83  87  90  94  98  101  104  106  108  111
112  114  115  110
511  504  492  478  462  446  426  406  385  366  348  329
307  282  257  232  206  181  156  132  111  95  81  70
60  53  46  38  28  15  1  1  1  1  1  1  1  0  1  1  1
1  1  2  6  11  17  22  27  32  37  42  47  52  57  61  66
71  75  79  83  87  91  95  98  101  104  107  109  111
113  114  110
511  499  486  471  454  434  413  393  374  356  338  317
294  268  242  216  189  161  135  113  97  85  76  69  61
52  41  29  16  2  0  0  0  0  0  0  0  1  1  1  1  1  1
4  8  13  19  24  29  34  39  44  49  54  58  63  68  72
77  81  85  89  93  96  100  103  106  108  111  113  115
117  110
511  500  487  473  457  438  418  397  376  358  340  320
298  273  245  220  196  170  141  115  95  81  72  64  57
50  44  36  24  10  1  1  1  1  1  1  1  1  1  1  1  1  2
6  11  17  22  27  32  36  41  46  51  55  60  64  69  73
78  82  86  90  93  97  100  103  106  109  111  113  115
117  110
511  502  492  480  467  452  435  415  394  373  354  334
313  288  260  235  210  184  159  134  109  89  72  60
54  51  50  45  37  26  13  2  1  1  1  1  1  1  1  1  1
3  8  13  18  23  27  32  37  41  46  51  55  60  64  68
73  77  81  85  88  92  96  99  102  105  107  109  112
113  115  116  110
511  506  499  491  482  471  458  444  428  409  389  370
349  327  302  272  243  218  194  170  146  123  102  83
68  58  52  49  47  43  36  27  16  4  1  1  1  1  1  4
9  13  17  21  26  30  35  40  44  49  53  58  62  67  71
75  79  82  86  90  93  96  99  102  105  107  110  112
113  115  116  117  110
511  508  506  502  497  490  482  472  461  448  433  417
399  378  356  333  307  280  251  223  197  173  151  130
112  96  83  72  63  55  49  44  36  29  20  9  1  5  9
13  17  22  26  31  35  40  44  49  53  58  62  66  70  74
78  82  85  89  92  95  98  101  103  106  108  110  112
113  114  115  116  116  110
511  514  515  516  515  512  508  502  494  485  475  463
451  436  420  401  379  354  328  299  269  239  211  185
160  136  115  96  81  68  59  52  46  41  35  31  28  23
17  21  26  30  35  39  44  49  53  58  62  66  70  74  78
82  85  89  93  96  99  102  104  107  109  111  113  114
115  116  117  117  117  117  110
511  519  523  527  529  529  528  525  521  516  509  501
492  482  469  453  433  411  387  359  329  299  268  237
207  176  149  122  100  80  64  53  46  45  48  51  48
45  41  37  33  38  43  47  52  56  61  65  69  73  77  81
85  88  92  95  98  101  104  107  109  111  113  115  116
117  118  118  118  118  118  117  110
511  523  530  534  538  540  541  541  540  537  533  526
518  508  495  478  460  438  413  385  356  324  291  259
227  196  169  144  120  100  84  72  66  64  63  62  60
60  59  57  51  44  47  52  57  61  66  70  74  78  82  85
89  93  96  99  102  105  107  110  112  114  115  117  118
119  120  120  120  119  118  117  110
511  521  528  534  539  543  545  547  547  546  543  539
532  522  510  495  477  457  433  407  378  347  315  281
247  214  185  160  138  119  104  91  83  79  77  76  74
72  70  65  60  54  49  52  56  61  66  70  75  79  83  87
91  94  98  101  104  107  110  113  115  117  119  121
122  123  124  124  124  124  123  121  110
