IESNA:LM-63-2002
[TEST] LTL27396P2
[TESTDATE] 2/11/2015
[ISSUEDATE] 4/22/2015
[TESTLAB] SCALED PHOTOMETRY
[TESTMETHOD] 
[MANUFAC] Lithonia Lighting
[LUMCAT] LBL4W 65L EZ1 LP840
[LUMINAIRE] LBL4W, 6500 NOMINAL LUMENS, 4000K.
[LAMPCAT] NICHIA 757D-V1
[LAMP] LED
[BALLAST] ECODRIVE
[BALLASTCAT] 
[DISTRIBUTION] DIRECT, SC-0=1.17, SC-90=1.16
[_TOTALLUMINAIRELUMENS] 6711.6
[_LAMPPOSITION] 0 , 0
[_LAMPWATTAGE] 56
[_MOUNTING] 
[_FAMILY] LBL LED
[_PRODUCTID] dd19b4a8-d07b-4225-ae03-6734ae3fd737
TILT=NONE
1  -1  1.0289  73  17  1  1  1.29  3.98  0.15
1  1  56
0  2.5  5  7.5  10  12.5  15  17.5  20  22.5  25  27.5  30
32.5  35  37.5  40  42.5  45  47.5  50  52.5  55  57.5  60
62.5  65  67.5  70  72.5  75  77.5  80  82.5  85  87.5  90
92.5  95  97.5  100  102.5  105  107.5  110  112.5  115
117.5  120  122.5  125  127.5  130  132.5  135  137.5  140
142.5  145  147.5  150  152.5  155  157.5  160  162.5  165  167.5  170  172.5  175  177.5  180
0  22.5  45  67.5  90  112.5  135  157.5  180  202.5  225  247.5  270  292.5  315  337.5  360
2516  2517  2505  2485  2457  2419  2373  2322  2266  2202
2129  2051  1964  1878  1787  1694  1594  1496  1395  1294
1194  1096  998  904  812  725  644  569  498  434  373
311  254  195  133  76  12  1  1  2  3  5  6  8  9  12  14
15  15  18  20  21  22  23  23  25  26  28  28  29  30  28
31  32  33  33  34  34  35  34  35  35  34
2516  2497  2487  2469  2443  2408  2366  2316  2264  2200
2130  2054  1976  1887  1798  1710  1613  1515  1414  1313
1214  1117  1018  928  836  749  667  591  522  456  393
334  276  217  165  107  52  18  19  21  21  23  24  24
26  27  27  29  29  30  29  31  32  32  32  32  32  33  32
33  33  33  33  34  35  35  35  35  36  35  35  35  34
2516  2510  2499  2481  2457  2424  2381  2336  2282  2218
2149  2075  1995  1913  1820  1728  1631  1533  1433  1334
1236  1137  1044  951  866  778  700  624  553  487  427
369  314  259  206  151  99  62  47  49  50  51  50  52
52  52  53  52  53  53  52  51  51  50  49  48  47  46  44
43  41  37  39  37  37  36  35  35  35  34  34  34  34
2516  2511  2505  2489  2463  2432  2393  2349  2296  2232
2166  2091  2009  1927  1838  1742  1647  1549  1447  1349
1254  1156  1062  973  885  803  725  653  582  522  462
405  351  298  244  195  143  106  82  76  76  77  77  76
76  76  74  72  72  71  70  68  66  65  63  60  59  57  53
51  47  44  41  39  37  35  32  32  31  30  30  30  34
2516  2510  2503  2487  2465  2435  2401  2360  2307  2246
2180  2105  2024  1938  1849  1758  1658  1561  1462  1365
1262  1168  1075  986  898  818  739  668  601  540  480
422  369  316  266  213  161  124  96  87  86  86  86  86
85  85  80  81  80  78  76  74  72  69  65  64  59  57  53
50  48  45  43  40  37  34  33  31  31  34  38  39  34
2516  2519  2511  2493  2473  2441  2403  2359  2305  2248
2180  2107  2027  1942  1849  1757  1658  1561  1462  1361
1262  1164  1069  980  891  809  727  656  588  525  468
410  356  303  252  201  151  111  87  76  76  77  77  76
76  76  74  72  72  71  70  67  65  64  61  59  56  55  51
47  46  44  42  38  37  35  34  32  31  30  31  32  34
2516  2527  2521  2503  2480  2447  2409  2365  2310  2248
2182  2109  2027  1943  1853  1757  1659  1561  1461  1357
1259  1160  1063  969  880  795  712  636  567  500  437
381  325  270  217  161  112  71  52  49  51  51  50  52
52  53  53  51  52  52  51  48  48  45  44  41  41  40  38
35  35  34  33  32  31  30  30  30  30  31  32  32  34
2516  2523  2513  2501  2478  2445  2407  2359  2305  2246
2176  2102  2020  1936  1844  1752  1649  1552  1448  1349
1246  1145  1046  950  859  769  689  612  540  473  408
349  290  232  175  124  65  29  20  21  22  23  24  25
26  27  28  29  29  29  29  29  29  29  27  28  27  27  28
28  28  29  29  30  30  31  32  33  31  34  34  35  34
2516  2521  2509  2491  2463  2431  2387  2336  2278  2214
2140  2060  1978  1884  1790  1694  1592  1490  1383  1278
1175  1074  974  876  788  701  618  545  472  404  341
282  228  171  115  52  1  1  2  3  4  6  7  9  10  14  15
16  18  19  20  21  21  23  24  25  26  27  28  29  30  31
32  34  33  34  34  35  35  35  35  36  34
2516  2497  2485  2465  2435  2399  2357  2304  2242  2176
2101  2023  1936  1847  1753  1653  1556  1450  1346  1244
1144  1045  947  858  767  681  605  534  464  399  339
279  223  171  117  60  24  21  23  24  25  26  27  28  29
31  32  30  32  32  32  32  29  31  30  30  30  32  29  29
29  29  29  31  32  33  33  34  31  34  35  36  34
2516  2502  2491  2468  2438  2401  2353  2299  2240  2166
2092  2014  1924  1831  1736  1637  1534  1429  1328  1228
1126  1027  933  845  755  676  597  529  464  405  349
296  240  190  137  88  60  54  55  56  57  58  58  59  59
59  60  59  58  57  56  54  52  50  47  44  45  43  40  38
36  34  33  32  31  30  30  31  32  32  32  34  34
2516  2505  2488  2463  2429  2387  2341  2286  2224  2156
2079  1997  1908  1817  1718  1617  1516  1414  1314  1210
1111  1014  921  839  753  676  606  540  479  425  371
318  264  215  164  123  100  87  85  85  86  86  87  85
85  84  84  82  81  77  77  74  71  69  65  63  60  59  53
51  46  43  42  40  38  37  35  33  33  32  32  32  34
2516  2499  2482  2456  2420  2377  2325  2271  2207  2134
2059  1974  1887  1795  1699  1599  1498  1397  1300  1199
1103  1009  919  839  755  683  616  551  493  438  385
330  279  229  177  137  112  98  96  96  97  96  96  95
94  92  92  90  88  86  84  82  77  76  73  70  65  65  58
53  51  48  46  43  40  39  37  35  37  39  39  39  34
2516  2513  2493  2466  2430  2388  2339  2288  2224  2154
2079  1996  1908  1813  1718  1619  1518  1415  1313  1209
1114  1016  926  841  755  678  610  545  486  428  373
321  268  219  166  122  99  83  84  85  85  86  85  85
84  83  83  80  81  79  77  74  71  71  68  65  62  61  56
52  50  47  44  40  39  38  34  34  33  32  32  32  34
2516  2521  2503  2475  2444  2401  2349  2295  2233  2164
2088  2008  1920  1829  1735  1634  1534  1430  1330  1229
1127  1031  937  846  759  674  601  529  466  409  350
294  244  191  135  88  60  53  55  56  57  58  58  58  58
58  59  59  58  58  57  57  55  54  53  50  51  51  47  46
43  42  40  40  39  38  37  36  36  34  34  33  34
2516  2515  2496  2471  2443  2401  2351  2298  2233  2164
2092  2010  1924  1831  1736  1640  1538  1437  1331  1233
1133  1033  939  850  759  675  597  523  455  393  335
278  220  167  111  53  24  23  23  24  25  26  28  29  30
31  32  32  33  34  34  32  35  36  35  36  36  37  35  35
35  35  35  35  35  35  35  35  35  35  35  35  34
2516  2517  2505  2485  2457  2419  2373  2322  2266  2202
2129  2051  1964  1878  1787  1694  1594  1496  1395  1294
1194  1096  998  906  812  725  644  569  498  434  373
311  254  195  133  76  12  1  1  2  3  5  6  8  9  12  14
15  15  18  20  21  22  23  23  25  26  29  28  29  29  28
31  32  33  33  34  34  35  34  35  35  34
