IESNA:LM-63-2002
[TEST] LTL27386P18
[TESTDATE] 2/10/2015
[ISSUEDATE] 4/22/2015
[TESTLAB] SCALED PHOTOMETRY
[TESTMETHOD] 
[MANUFAC] Lithonia Lighting
[LUMCAT] LBL4 60L EZ1 LP840
[LUMINAIRE] LBL4, 6000 NOMINAL LUMENS, 4000K.
[LAMPCAT] NICHIA NF2L757D-V1
[LAMP] LED
[BALLAST] ECODRIVE
[BALLASTCAT] 
[DISTRIBUTION] SEMI-DIRECT, SC-0=1.19, SC-90=1.17
[_TOTALLUMINAIRELUMENS] 6366.1
[_LAMPPOSITION] 0 , 0
[_LAMPWATTAGE] 55
[_MOUNTING] 
[_FAMILY] LBL LED
[_PRODUCTID] bf70c0dc-495f-42ff-9c33-07caf7182953
TILT=NONE
1  -1  2.10927909211398  73  17  1  1  0.83  3.94  0.15
1  1  55
0  2.5  5  7.5  10  12.5  15  17.5  20  22.5  25  27.5  30
32.5  35  37.5  40  42.5  45  47.5  50  52.5  55  57.5  60
62.5  65  67.5  70  72.5  75  77.5  80  82.5  85  87.5  90
92.5  95  97.5  100  102.5  105  107.5  110  112.5  115
117.5  120  122.5  125  127.5  130  132.5  135  137.5  140
142.5  145  147.5  150  152.5  155  157.5  160  162.5  165  167.5  170  172.5  175  177.5  180
0  22.5  45  67.5  90  112.5  135  157.5  180  202.5  225  247.5  270  292.5  315  337.5  360
1194  1198  1194  1186  1175  1162  1144  1122  1096  1067
1035  999  958  910  859  803  743  678  613  549  486  426
372  322  273  229  188  157  135  116  100  82  65  50
34  22  5  1  2  3  5  7  9  12  14  18  20  22  25  26
30  33  35  36  40  41  42  43  44  45  46  46  49  49  50
50  51  51  52  52  52  52  46
1194  1191  1186  1180  1169  1154  1137  1116  1091  1064
1033  997  958  913  864  811  751  686  619  553  487  424
363  305  253  210  176  151  134  118  105  96  84  69
56  40  25  19  19  21  24  25  28  30  31  34  35  36  38
41  43  44  46  47  49  50  52  54  55  56  57  58  57  57
54  55  53  53  53  53  53  51  46
1194  1193  1186  1180  1169  1154  1138  1119  1095  1067
1035  1001  960  917  866  811  748  682  611  543  476
415  356  303  252  209  177  151  137  129  124  120  116
107  96  82  72  61  60  60  60  62  62  62  62  62  61
61  61  61  62  61  63  63  63  64  63  63  63  62  61  63
63  62  62  62  61  60  58  56  53  48  46
1194  1194  1186  1179  1167  1154  1138  1119  1096  1063
1032  994  951  904  852  795  736  676  616  553  493  434
377  326  284  247  221  204  192  185  179  171  160  147
132  115  104  95  89  87  87  88  88  88  88  87  87  85
84  82  79  78  76  76  75  75  75  73  73  71  69  67  65
65  65  60  58  56  54  52  49  45  46
1194  1189  1183  1176  1164  1152  1137  1118  1094  1065
1033  994  948  899  845  787  727  667  610  554  502  455
410  370  334  300  273  254  236  219  202  186  170  152
136  120  110  101  97  96  95  95  95  96  96  96  94  93
92  90  87  83  82  81  79  79  77  75  73  73  71  67  63
58  57  56  55  54  52  49  44  41  46
1194  1193  1185  1177  1164  1151  1135  1113  1089  1062
1028  989  947  901  850  793  732  670  612  552  498  445
396  349  304  266  236  210  192  179  170  162  154  144
132  116  103  94  88  86  86  86  86  86  85  85  84  83
80  79  77  76  75  74  74  72  70  70  67  65  62  58  55
53  51  49  47  46  44  42  40  39  46
1194  1197  1192  1185  1172  1156  1135  1116  1093  1065
1031  995  952  908  855  798  734  670  606  540  478  421
369  319  270  222  183  151  131  119  110  106  105  103
98  85  70  61  57  57  58  58  59  59  59  59  58  58  59
59  60  61  61  61  60  59  56  53  52  51  50  50  49  47
47  47  47  48  48  47  48  48  46
1194  1197  1193  1185  1170  1156  1137  1116  1091  1059
1026  988  946  898  845  789  729  666  603  541  483  429
376  325  277  234  195  165  140  122  106  95  85  71
57  40  23  16  18  19  21  23  25  28  30  31  34  34  37
37  40  42  42  43  42  44  44  44  44  44  45  45  45  47
47  48  48  49  49  50  50  50  46
1194  1193  1188  1179  1167  1153  1134  1112  1083  1052
1015  974  925  873  816  761  699  637  574  512  454  403
356  317  277  240  207  176  152  128  101  78  60  44
32  14  0  1  1  4  6  8  12  15  17  20  22  25  28  30
33  34  36  36  38  38  39  39  41  43  44  46  47  48  49
50  51  51  52  51  52  53  46
1194  1189  1186  1175  1163  1147  1128  1106  1076  1046
1011  972  929  878  822  766  705  640  577  515  458  402
350  300  252  211  176  150  129  113  101  89  80  67
53  34  20  19  20  22  25  27  29  31  32  33  36  38  40
43  44  46  47  47  47  46  46  45  45  45  43  44  44  44
44  45  46  45  47  48  49  49  46
1194  1189  1182  1173  1161  1145  1125  1104  1080  1047
1015  974  934  884  830  771  709  641  579  517  458  403
348  297  248  206  170  144  128  119  114  109  109  104
94  76  62  58  57  57  58  58  58  61  61  62  62  61  62
61  61  60  61  60  59  59  59  56  54  51  50  50  49  48
46  46  44  44  43  43  44  45  46
1194  1191  1185  1175  1163  1146  1130  1106  1080  1047
1015  975  930  881  828  768  711  650  590  533  477  426
377  330  289  255  225  205  192  179  170  159  148  136
123  108  95  88  86  85  85  85  85  85  85  85  84  82
81  80  79  75  74  72  70  70  69  68  68  66  64  61  58
55  52  48  45  42  39  37  37  39  46
1194  1189  1182  1169  1156  1143  1125  1106  1076  1045
1010  967  923  869  815  757  698  641  585  531  480  433
391  350  315  286  262  245  229  212  195  176  159  142
127  112  104  96  93  93  93  93  93  93  93  93  91  91
88  86  84  82  81  78  75  75  74  74  73  73  72  70  66
59  57  54  51  52  49  46  42  40  46
1194  1194  1189  1178  1165  1151  1134  1115  1088  1058
1023  979  936  887  832  773  714  653  590  528  465  405
350  302  259  227  205  191  185  180  173  163  150  134
119  104  92  85  85  84  84  84  84  84  84  82  81  81
79  79  78  75  74  73  72  73  73  72  72  72  71  69  66
64  64  62  59  54  52  48  43  40  46
1194  1197  1192  1181  1170  1153  1135  1111  1090  1061
1029  989  948  899  846  784  719  650  580  514  448  387
328  276  229  189  158  136  126  121  116  112  106  98
87  72  60  55  55  56  56  56  57  58  59  60  59  58  59
60  60  60  61  62  63  64  65  65  65  64  64  65  65  65
62  59  56  53  50  49  48  47  46
1194  1201  1195  1185  1173  1158  1140  1117  1091  1060
1028  989  949  901  847  787  724  658  591  525  460  394
334  276  229  190  161  141  126  112  99  87  75  59  43
28  18  16  18  19  20  24  25  27  29  31  33  36  38  41
43  45  47  47  49  50  52  53  54  54  53  52  52  52  51
51  50  51  51  51  50  50  46
1194  1198  1194  1186  1175  1162  1143  1122  1096  1066
1035  998  959  910  860  802  743  678  613  549  486  426
372  322  273  229  188  157  135  116  100  81  65  50
34  22  5  1  2  3  5  7  9  12  14  18  20  22  25  27
31  33  35  36  40  41  42  43  44  45  46  46  49  49  50
50  51  51  52  52  52  52  46
