IESNA:LM-63-2002
[TEST] LTL17129
[TESTDATE] 12/2/2008
[ISSUEDATE] 9/2/2014
[TESTLAB] ACUITY BRANDS LIGHTING CONYERS LAB
[TESTMETHOD] IES LM-41:1998
[MANUFAC] Lithonia Lighting
[LUMCAT] Z 1 32 ASR
[LUMINAIRE] LOW-PROFILE STRIPLIGHT, 4FT LONG, WITH ONE LAMP AND ASYMMETRIC WHITE REFLECTOR
[LAMPCAT] F32T8
[LAMP] ONE 32-WATT T8 LINEAR FLUORESCENT
[BALLAST] QTP 1X32UNV ISN-SC ELECTRONIC INSTANT START BALLAST
[BALLASTCAT] GEB10IS
[DISTRIBUTION] SEMI-DIRECT, SC-0=1.26, SC-90=1.48
[_LAMPPOSITION] 0 , 0
[_LAMPTYPE] T8 LINEAR
[_LAMPWATTAGE] 32
[_LAMPLUMENS] 2800
[_MOUNTING] Suspended
[_FAMILY] Z Strip
[_PRODUCTID] e6e3532d-39f1-4c58-8d12-99085b01d3f0
[_TERCAT] Linear Industrial                                 
[_TER] 49
TILT=NONE
1  2800  1  73  17  1  1  0.19  4  0.08
1  1  29.3
0  2.5  5  7.5  10  12.5  15  17.5  20  22.5  25  27.5  30
32.5  35  37.5  40  42.5  45  47.5  50  52.5  55  57.5  60
62.5  65  67.5  70  72.5  75  77.5  80  82.5  85  87.5  90
92.5  95  97.5  100  102.5  105  107.5  110  112.5  115
117.5  120  122.5  125  127.5  130  132.5  135  137.5  140
142.5  145  147.5  150  152.5  155  157.5  160  162.5  165  167.5  170  172.5  175  177.5  180
0  22.5  45  67.5  90  112.5  135  157.5  180  202.5  225  247.5  270  292.5  315  337.5  360
561  562  560  556  552  546  539  531  523  512  501  489
476  462  447  431  414  396  378  359  341  321  301  280
259  237  214  191  167  143  119  94  70  46  24  7  0
0  0  0  0  0  0  0  0  0  0  0  0  0  0  0  0  0  0  0
0  0  0  0  0  0  0  0  0  0  0  0  0  0  0  0  0
561  565  565  564  562  558  554  549  542  535  526  518
508  498  487  475  462  449  435  422  409  394  379  363
347  330  310  288  267  245  222  202  181  155  133  119
109  108  109  98  84  71  59  47  36  26  16  8  1  0  0
0  0  0  0  0  0  0  0  0  0  0  0  0  0  0  0  0  0  0
0  0  0
561  562  563  564  564  564  564  562  560  558  555  552
548  545  541  536  531  523  513  503  492  480  467  454
442  428  411  397  382  364  342  318  297  280  266  253
243  238  238  237  232  217  199  181  163  145  127  110
94  77  61  46  31  18  5  0  0  0  0  0  0  0  0  0  0
0  0  0  0  0  0  0  0
561  565  568  570  572  575  578  580  582  583  583  584
585  585  583  579  573  567  561  553  546  538  531  524
517  507  495  479  462  442  422  403  386  373  360  346
336  330  327  328  324  318  301  282  261  240  218  197
176  154  134  113  93  73  54  36  19  4  0  0  0  0  0
0  0  0  0  0  0  0  0  0  0
561  563  567  570  573  577  581  585  589  592  595  598
600  601  599  596  592  587  582  575  569  563  558  553
546  537  524  508  489  470  451  433  418  405  391  377
369  363  359  359  356  351  337  317  295  272  250  227
204  181  159  137  115  94  73  52  33  16  0  0  0  0
0  0  0  0  0  0  0  0  0  0  0
561  564  567  570  572  575  578  580  583  585  587  588
589  589  587  584  579  573  566  558  552  545  538  531
523  512  500  484  464  443  422  403  386  373  359  345
336  330  327  327  324  317  301  280  259  237  216  194
173  152  131  110  90  70  52  34  17  2  0  0  0  0  0
0  0  0  0  0  0  0  0  0  0
561  564  566  567  568  568  567  566  564  562  560  557
552  548  543  537  531  523  514  503  492  480  469  456
443  429  414  399  384  366  344  320  298  279  264  249
238  234  233  232  227  212  194  175  157  139  122  105
89  73  57  41  27  13  1  0  0  0  0  0  0  0  0  0  0
0  0  0  0  0  0  0  0
561  566  566  566  564  561  557  552  546  539  531  522
513  502  491  480  468  454  440  427  413  398  383  367
350  331  311  289  266  244  221  199  179  154  129  113
102  99  100  92  77  64  52  40  29  19  9  1  0  0  0
0  0  0  0  0  0  0  0  0  0  0  0  0  0  0  0  0  0  0
0  0  0
561  562  561  558  554  549  543  535  526  517  505  494
481  467  452  436  419  402  383  364  344  323  302  280
258  235  212  189  165  141  116  91  67  44  22  6  0
0  0  0  0  0  0  0  0  0  0  0  0  0  0  0  0  0  0  0
0  0  0  0  0  0  0  0  0  0  0  0  0  0  0  0  0
561  562  559  556  551  545  538  530  521  512  501  490
477  464  449  434  418  401  384  366  348  330  311  294
279  265  249  233  213  192  167  138  116  89  57  28
5  4  3  2  1  1  0  0  0  0  0  0  0  0  0  0  0  0  0
0  0  0  0  0  0  0  0  0  0  0  0  0  0  0  0  0  0
561  556  552  548  543  538  532  525  517  509  499  490
480  469  459  448  438  431  424  415  406  396  384  371
356  337  314  288  262  239  209  173  135  98  62  29
2  0  0  0  0  0  0  0  0  0  0  0  0  0  0  0  0  0  0
0  0  0  0  0  0  0  0  0  0  0  0  0  0  0  0  0  0
561  557  553  549  545  540  535  528  522  515  507  500
493  486  482  479  475  470  463  455  447  438  426  410
390  368  344  322  293  256  217  177  138  99  62  27
0  0  0  0  0  0  0  0  0  0  0  0  0  0  0  0  0  0  0
0  0  0  0  0  0  0  0  0  0  0  0  0  0  0  0  0  0
561  555  551  547  542  538  533  527  521  515  508  503
497  495  494  492  489  484  478  473  465  455  441  423
401  379  356  332  296  257  217  178  138  98  60  26
0  0  0  0  0  0  0  0  0  0  0  0  0  0  0  0  0  0  0
0  0  0  0  0  0  0  0  0  0  0  0  0  0  0  0  0  0
561  556  552  548  543  538  533  527  520  513  505  498
491  484  481  479  474  470  463  456  448  437  424  407
387  364  340  319  289  252  213  174  134  95  59  25
0  0  0  0  0  0  0  0  0  0  0  0  0  0  0  0  0  0  0
0  0  0  0  0  0  0  0  0  0  0  0  0  0  0  0  0  0
561  557  553  548  543  537  531  523  515  505  495  485
474  463  452  442  432  424  417  409  400  388  375  361
345  327  304  280  255  233  200  163  125  88  52  20
0  0  0  0  0  0  0  0  0  0  0  0  0  0  0  0  0  0  0
0  0  0  0  0  0  0  0  0  0  0  0  0  0  0  0  0  0
561  562  558  554  548  541  534  525  516  506  495  483
470  456  441  425  409  393  375  357  338  319  301  284
269  254  239  222  202  180  154  127  106  76  44  16
0  0  0  0  0  0  0  0  0  0  0  0  0  0  0  0  0  0  0
0  0  0  0  0  0  0  0  0  0  0  0  0  0  0  0  0  0
561  562  560  556  552  546  539  531  523  512  501  489
476  462  447  431  414  396  378  359  341  321  301  280
259  237  214  191  167  143  119  94  70  46  24  7  0
0  0  0  0  0  0  0  0  0  0  0  0  0  0  0  0  0  0  0
0  0  0  0  0  0  0  0  0  0  0  0  0  0  0  0  0
