IESNA:LM-63-2002
[TEST] LTL17132
[TESTDATE] 12/3/2008
[ISSUEDATE] 11/20/2013
[TESTLAB] ACUITY BRANDS LIGHTING CONYERS LAB
[TESTMETHOD] IES LM-41:1998
[MANUFAC] Lithonia Lighting
[LUMCAT] Z 2 32 ASR
[LUMINAIRE] LOW-PROFILE STRIPLIGHT, 4FT LONG, WITH TWO LAMPS AND ASYMMETRIC WHITE REFLECTOR
[LAMPCAT] F32T8
[LAMP] TWO 32-WATT T8 LINEAR FLUORESCENT
[BALLAST] QTP 2 X 32UNV ISN SC
[BALLASTCAT] GEB10IS
[DISTRIBUTION] SEMI-DIRECT, SC-0=1.26, SC-90=1.44
[_LAMPPOSITION] 0 , 0
[_LAMPTYPE] T8 LINEAR
[_LAMPWATTAGE] 32
[_LAMPLUMENS] 2800
[_MOUNTING] Suspended
[_FAMILY] Z Strip
[_PRODUCTID] 69f35c8c-1404-4e0b-9ba6-2fe837e2754e
[_TERCAT] Linear Industrial                                 
[_TER] 50
TILT=NONE
2  2800  1  73  17  1  1  0.31  4  0.08
1  1  55.7
0  2.5  5  7.5  10  12.5  15  17.5  20  22.5  25  27.5  30
32.5  35  37.5  40  42.5  45  47.5  50  52.5  55  57.5  60
62.5  65  67.5  70  72.5  75  77.5  80  82.5  85  87.5  90
92.5  95  97.5  100  102.5  105  107.5  110  112.5  115
117.5  120  122.5  125  127.5  130  132.5  135  137.5  140
142.5  145  147.5  150  152.5  155  157.5  160  162.5  165  167.5  170  172.5  175  177.5  180
0  22.5  45  67.5  90  112.5  135  157.5  180  202.5  225  247.5  270  292.5  315  337.5  360
1161  1157  1153  1147  1138  1126  1112  1096  1077  1056
1034  1009  982  952  921  888  854  818  780  741  704
663  622  579  534  489  442  394  346  297  248  197  147
97  51  14  1  0  0  0  1  1  1  1  1  1  0  1  0  1  1
0  0  1  0  1  1  1  1  1  1  1  1  0  1  1  1  0  1  1
1  0  0
1161  1161  1157  1151  1143  1134  1123  1110  1095  1078
1059  1038  1015  989  963  935  905  874  842  809  776
740  703  665  628  591  551  509  467  425  379  333  290
240  187  153  134  150  158  150  142  138  133  130  126
122  118  114  109  105  99  93  86  78  71  54  16  7  5
4  4  3  2  1  1  1  0  0  0  0  0  0  0
1161  1153  1150  1147  1145  1141  1135  1126  1116  1104
1092  1078  1063  1047  1030  1012  992  970  947  923  896
867  836  806  776  740  699  659  620  581  536  489  437
391  358  324  305  315  337  344  335  326  315  303  290
281  271  261  252  243  233  223  212  200  189  176  163
150  134  119  103  89  33  1  0  0  0  0  0  0  0  0  0
1161  1160  1159  1158  1158  1158  1156  1152  1146  1140
1132  1122  1113  1102  1090  1078  1063  1045  1025  1003
980  956  932  904  873  839  802  765  729  688  643  594
548  513  479  442  425  433  450  472  469  458  447  434
418  403  387  374  360  346  331  317  301  285  269  252
236  218  200  181  161  140  120  97  45  0  0  0  0  0
0  0  0
1161  1158  1158  1158  1160  1160  1160  1159  1156  1153
1149  1142  1135  1128  1119  1109  1094  1078  1059  1038
1016  993  969  943  912  880  844  807  768  727  681  633
591  556  521  484  467  473  489  510  517  507  495  480
463  446  428  411  396  381  364  348  332  315  297  279
261  242  222  203  182  158  135  110  88  5  0  0  0  0
0  0  0
1161  1161  1159  1160  1160  1159  1157  1153  1149  1144
1139  1131  1122  1111  1100  1088  1074  1056  1036  1014
992  970  946  919  888  853  816  778  737  695  649  600
554  518  483  447  426  431  447  470  472  461  449  434
418  402  386  372  358  344  329  314  298  283  266  249
233  215  195  170  144  118  95  71  28  0  0  0  0  0
0  0  0
1161  1162  1159  1157  1154  1150  1144  1136  1127  1116
1105  1090  1075  1058  1040  1020  999  978  956  932  906
877  849  820  788  754  715  675  634  594  551  505  454
404  366  332  305  311  329  345  337  326  315  302  288
279  269  260  251  241  231  221  210  198  183  165  147
128  109  92  73  59  17  0  0  0  0  0  0  0  0  0  0
1161  1169  1165  1160  1152  1144  1133  1121  1107  1091
1073  1052  1030  1006  979  951  922  892  859  827  792
757  720  683  645  607  565  521  478  437  392  346  303
255  203  160  134  141  157  151  143  136  131  127  123
119  115  110  105  100  95  88  81  71  61  47  11  0  0
0  0  0  0  0  0  0  0  0  0  0  0  0  0
1161  1158  1155  1150  1141  1130  1117  1101  1083  1063
1040  1016  990  961  931  897  863  828  790  750  709
667  623  579  534  488  441  394  346  295  246  197  148
100  53  15  1  1  0  0  1  1  0  0  1  0  1  1  1  1  0
1  0  1  0  0  0  0  1  1  0  1  1  1  0  1  0  1  1  0
1  1  0
1161  1162  1159  1155  1148  1139  1127  1113  1097  1080
1061  1039  1015  989  961  930  897  861  823  785  746
708  668  628  588  550  510  461  410  356  297  236  177
124  77  34  4  1  1  1  1  0  0  0  0  0  0  0  0  0  0
0  0  0  0  0  0  0  0  0  0  0  0  0  0  0  0  0  0  0
0  0  0
1161  1155  1153  1150  1145  1139  1132  1121  1108  1093
1075  1054  1033  1011  989  966  942  919  895  870  839
799  758  715  665  607  544  482  420  360  300  243  188
134  84  38  3  0  0  0  0  0  0  0  0  0  0  0  0  0  0
0  0  0  0  0  0  0  0  0  0  0  0  0  0  0  0  0  0  0
0  0  0
1161  1162  1161  1160  1158  1154  1148  1138  1125  1111
1096  1082  1067  1051  1035  1019  1001  976  942  905
868  826  778  723  664  606  545  484  424  364  306  248
191  137  86  39  2  0  0  0  0  0  0  0  0  0  0  0  0
0  0  0  0  0  0  0  0  0  0  0  0  0  0  0  0  0  0  0
0  0  0  0  0
1161  1160  1160  1158  1156  1153  1148  1138  1126  1113
1102  1090  1078  1066  1053  1039  1017  987  955  920
879  833  780  722  666  606  545  484  423  362  303  245
188  134  83  36  0  0  0  0  0  0  0  0  0  0  0  0  0
0  0  0  0  0  0  0  0  0  0  0  0  0  0  0  0  0  0  0
0  0  0  0  0
1161  1162  1161  1159  1156  1152  1147  1138  1124  1109
1094  1079  1065  1049  1035  1019  1001  975  943  906
867  822  771  714  654  596  535  475  415  355  297  239
183  129  78  32  0  0  0  0  0  0  0  0  0  0  0  0  0
0  0  0  0  0  0  0  0  0  0  0  0  0  0  0  0  0  0  0
0  0  0  0  0
1161  1162  1160  1155  1150  1143  1134  1123  1110  1092
1072  1050  1029  1007  984  963  939  915  891  866  831
788  744  697  644  586  524  463  402  342  284  226  172
119  70  26  0  0  0  0  0  0  0  0  0  0  0  0  0  0  0
0  0  0  0  0  0  0  0  0  0  0  0  0  0  0  0  0  0  0
0  0  0
1161  1167  1164  1158  1150  1139  1127  1112  1095  1077
1057  1034  1010  983  953  922  887  851  813  774  735
695  654  613  574  537  492  440  388  332  270  210  155
103  58  17  0  0  0  0  0  0  0  0  0  0  0  0  0  0  0
0  0  0  0  0  0  0  0  0  0  0  0  0  0  0  0  0  0  0
0  0  0
1161  1157  1153  1147  1138  1126  1112  1096  1077  1056
1034  1009  982  952  921  888  854  818  780  741  704
663  622  579  534  489  442  394  346  297  248  197  147
97  51  14  1  0  0  0  1  1  1  1  1  1  0  1  0  1  1
0  0  1  0  1  1  1  1  1  1  1  1  0  1  1  1  0  1  1
1  0  0
