IESNA:LM-63-2002
[TEST] LTL17095
[TESTDATE] 11/26/2008
[ISSUEDATE] 11/20/2013
[TESTLAB] ACUITY BRANDS LIGHTING CONYERS LAB
[TESTMETHOD] IES LM-41:1998
[MANUFAC] Lithonia Lighting
[LUMCAT] Z 1 28T5 ASR LPSM835P
[LUMINAIRE] LOW-PROFILE STRIPLIGHT, 4FT LONG, WITH ONE LAMP AND ASYMMETRIC WHITE REFLECTOR
[LAMPCAT] FP28/835/PM/ECO
[LAMP] ONE 28-WATT T5 LINEAR FLUORESCENT, PREMIER (OSRAM)
[BALLAST] B228PUNV-C ELECTRONIC PROGRAM RAPID START BALLAST
[BALLASTCAT] GEB10PS
[DISTRIBUTION] DIRECT, SC-0=1.29, SC-90=1.45
[_LAMPPOSITION] 0 , 0
[_LAMPTYPE] T5 LINEAR
[_LAMPWATTAGE] 28
[_LAMPLUMENS] 2730
[_MOUNTING] Suspended
[_FAMILY] Z Strip
[_PRODUCTID] 4d2c9288-d71c-4898-a2ce-5a6e96fc54b7
[_TERCAT] Linear Industrial                                 
[_TER] 45
TILT=NONE
1  2730  1  73  17  1  1  0.18  3.83  0
1  1  33.1
0  2.5  5  7.5  10  12.5  15  17.5  20  22.5  25  27.5  30
32.5  35  37.5  40  42.5  45  47.5  50  52.5  55  57.5  60
62.5  65  67.5  70  72.5  75  77.5  80  82.5  85  87.5  90
92.5  95  97.5  100  102.5  105  107.5  110  112.5  115
117.5  120  122.5  125  127.5  130  132.5  135  137.5  140
142.5  145  147.5  150  152.5  155  157.5  160  162.5  165  167.5  170  172.5  175  177.5  180
0  22.5  45  67.5  90  112.5  135  157.5  180  202.5  225  247.5  270  292.5  315  337.5  360
616  625  626  623  619  613  606  597  588  576  563  550
536  519  502  483  463  443  421  399  376  352  329  303
279  254  227  200  174  147  119  91  63  37  13  0  0
0  0  0  0  0  0  0  0  0  0  0  0  0  0  0  0  0  0  0
0  0  0  0  0  0  0  0  0  0  0  0  0  0  0  0  0
616  625  625  625  623  620  617  612  606  599  590  581
571  561  549  534  519  504  489  473  455  436  415  396
376  355  334  315  296  275  253  229  204  174  143  125
112  103  80  57  36  16  1  0  0  0  0  0  0  0  0  0  0
0  0  0  0  0  0  0  0  0  0  0  0  0  0  0  0  0  0  0
0
616  602  621  624  625  625  625  625  623  622  620  616
612  606  598  589  578  568  557  546  534  522  511  500
487  471  454  437  420  399  379  354  324  299  282  267
252  243  230  204  175  148  121  94  67  42  18  1  0
0  0  0  0  0  0  0  0  0  0  0  0  0  0  0  0  0  0  0
0  0  0  0  0
616  611  615  619  622  625  628  621  634  636  638  638
636  633  628  624  619  613  608  602  597  589  579  570
560  548  533  518  501  482  462  437  412  395  379  361
347  335  325  308  278  248  218  185  154  124  93  64
39  16  1  0  0  0  0  0  0  0  0  0  0  0  0  0  0  0  0
0  0  0  0  0  0
616  608  613  617  622  626  631  636  641  645  647  649
647  645  641  636  633  630  626  623  617  609  601  594
584  573  559  544  528  510  488  463  440  423  406  391
379  366  355  340  314  283  252  219  187  156  125  91
64  38  15  0  0  0  0  0  0  0  0  0  0  0  0  0  0  0
0  0  0  0  0  0  0
616  610  615  617  621  623  626  627  629  631  632  632
629  626  622  618  613  609  604  597  591  586  579  570
559  546  533  518  501  483  461  437  412  393  377  362
351  342  334  313  283  253  222  191  161  130  99  69
45  21  3  0  0  0  0  0  0  0  0  0  0  0  0  0  0  0  0
0  0  0  0  0  0
616  626  629  632  632  631  630  629  626  623  620  616
612  606  598  588  577  566  556  543  530  519  509  498
485  469  453  438  420  401  380  355  327  302  283  270
260  252  238  213  186  158  132  105  77  52  30  10  1
0  0  0  0  0  0  0  0  0  0  0  0  0  0  0  0  0  0  0
0  0  0  0  0
616  629  630  629  628  624  620  614  608  601  592  582
571  560  547  533  519  504  488  471  453  435  415  394
374  354  334  315  298  277  255  233  208  179  146  133
123  114  93  70  49  28  12  2  1  1  1  0  0  0  0  0
0  0  0  0  0  0  0  0  0  0  0  0  0  0  0  0  0  0  0
0  0
616  622  613  611  603  597  588  577  564  549  538  530
517  504  491  472  454  433  411  389  366  342  318  292
265  238  213  188  162  136  111  84  59  36  14  0  0
0  0  0  0  0  0  0  0  0  0  0  0  0  0  0  0  0  0  0
0  0  0  0  0  0  0  0  0  0  0  0  0  0  0  0  0
616  598  615  611  604  598  590  583  576  569  559  546
532  518  502  484  464  445  424  403  382  360  337  315
298  280  257  239  220  192  158  120  73  26  1  0  0
0  0  0  0  0  0  0  0  0  0  0  0  0  0  0  0  0  0  0
0  0  0  0  0  0  0  0  0  0  0  0  0  0  0  0  0
616  613  609  603  595  590  586  582  577  567  554  542
528  517  504  488  476  465  453  438  421  406  392  375
355  330  298  260  218  161  102  46  2  0  0  0  0  0
0  0  0  0  0  0  0  0  0  0  0  0  0  0  0  0  0  0  0
0  0  0  0  0  0  0  0  0  0  0  0  0  0  0  0
616  604  600  594  587  583  585  581  572  563  553  544
534  526  520  513  503  491  481  473  461  446  427  403
370  332  289  231  169  107  49  3  0  0  0  0  0  0  0
0  0  0  0  0  0  0  0  0  0  0  0  0  0  0  0  0  0  0
0  0  0  0  0  0  0  0  0  0  0  0  0  0  0
616  601  599  593  584  587  589  582  574  567  558  550
542  537  532  523  512  502  496  486  474  457  435  404
367  327  272  211  147  85  29  0  0  0  0  0  0  0  0
0  0  0  0  0  0  0  0  0  0  0  0  0  0  0  0  0  0  0
0  0  0  0  0  0  0  0  0  0  0  0  0  0  0
616  603  600  588  587  593  590  583  574  565  557  548
538  529  523  515  503  492  481  471  460  446  427  402
371  333  291  234  173  111  53  6  0  0  0  0  0  0  0
0  0  0  0  0  0  0  0  0  0  0  0  0  0  0  0  0  0  0
0  0  0  0  0  0  0  0  0  0  0  0  0  0  0
616  616  609  606  607  606  603  597  589  579  569  558
546  534  519  506  492  482  470  454  436  420  405  387
366  340  308  270  229  174  115  59  10  0  0  0  0  0
0  0  0  0  0  0  0  0  0  0  0  0  0  0  0  0  0  0  0
0  0  0  0  0  0  0  0  0  0  0  0  0  0  0  0
616  620  618  615  612  608  602  597  589  582  572  561
549  535  518  500  481  462  442  422  399  377  353  332
315  296  271  251  232  205  171  133  90  41  8  6  5
4  3  2  1  1  1  1  0  0  0  0  0  0  0  0  0  0  0  0
0  0  0  0  0  0  0  0  0  0  0  0  0  0  0  0  0
616  625  626  623  619  613  606  597  588  576  563  550
536  519  502  483  463  443  421  399  376  352  329  303
279  254  227  200  174  147  119  91  63  37  13  0  0
0  0  0  0  0  0  0  0  0  0  0  0  0  0  0  0  0  0  0
0  0  0  0  0  0  0  0  0  0  0  0  0  0  0  0  0
