IESNA:LM-63-2002
[TEST] LTL17098
[TESTDATE] 12/1/2008
[ISSUEDATE] 11/20/2013
[TESTLAB] ACUITY BRANDS LIGHTING CONYERS LAB
[TESTMETHOD] IES LM-41:1998
[MANUFAC] Lithonia Lighting
[LUMCAT] Z 2 28T5 ASR LPSM835P
[LUMINAIRE] LOW-PROFILE STRIPLIGHT, 4FT LONG, WITH TWO LAMPS AND ASYMMETRIC WHITE REFLECTOR
[LAMPCAT] FP28/835/PM/ECO
[LAMP] TWO 28-WATT T5 LINEAR FLUORESCENT, PREMIER (OSRAM)
[BALLAST] B228PUNV-C
[BALLASTCAT] GEB10PS
[DISTRIBUTION] DIRECT, SC-0=1.28, SC-90=1.43
[_LAMPPOSITION] 0 , 0
[_LAMPTYPE] T5 LINEAR
[_LAMPWATTAGE] 28
[_LAMPLUMENS] 2730
[_MOUNTING] Suspended
[_FAMILY] Z Strip
[_PRODUCTID] aa9373d0-1d05-42e8-ace4-2a722473d4bc
[_TERCAT] Linear Industrial                                 
[_TER] 46
TILT=NONE
2  2730  1  73  17  1  1  0.19  3.83  0
1  1  67
0  2.5  5  7.5  10  12.5  15  17.5  20  22.5  25  27.5  30
32.5  35  37.5  40  42.5  45  47.5  50  52.5  55  57.5  60
62.5  65  67.5  70  72.5  75  77.5  80  82.5  85  87.5  90
92.5  95  97.5  100  102.5  105  107.5  110  112.5  115
117.5  120  122.5  125  127.5  130  132.5  135  137.5  140
142.5  145  147.5  150  152.5  155  157.5  160  162.5  165  167.5  170  172.5  175  177.5  180
0  22.5  45  67.5  90  112.5  135  157.5  180  202.5  225  247.5  270  292.5  315  337.5  360
1358  1366  1367  1362  1353  1340  1325  1306  1285  1260
1234  1204  1171  1136  1098  1058  1016  971  926  879
831  778  729  677  623  570  515  461  404  345  286  225
165  106  48  10  0  0  0  0  0  0  0  0  0  0  0  0  0
0  0  0  0  0  0  0  0  0  0  0  0  0  0  0  0  0  0  0
0  0  0  0  0
1358  1368  1369  1367  1362  1354  1344  1334  1319  1303
1283  1260  1236  1210  1179  1145  1107  1071  1034  995
954  907  862  813  763  712  660  614  567  517  467  415
360  296  217  174  151  137  118  103  88  72  59  47  34
25  14  5  0  0  0  0  0  0  0  0  0  0  0  0  0  0  0  0
0  0  0  0  0  0  0  0  0
1358  1375  1379  1380  1380  1380  1377  1372  1364  1354
1341  1326  1307  1287  1264  1238  1208  1176  1141  1106
1069  1033  998  963  921  877  831  786  738  689  639
581  510  437  386  346  318  314  287  265  243  224  206
186  166  148  130  113  95  76  60  45  29  17  6  0  0
0  0  0  0  0  0  0  0  0  0  0  0  0  0  0  0
1358  1356  1363  1369  1374  1378  1379  1377  1374  1369
1362  1351  1340  1324  1305  1282  1256  1230  1205  1182
1159  1124  1088  1054  1018  977  934  889  846  797  741
675  604  547  500  461  430  426  409  379  356  333  311
288  265  243  220  199  176  154  133  113  92  72  53
37  21  7  0  0  0  0  0  0  0  0  0  0  0  0  0  0  0
1358  1356  1363  1369  1375  1380  1382  1382  1381  1377
1372  1365  1354  1340  1319  1298  1277  1257  1235  1214
1183  1150  1119  1088  1050  1011  969  927  881  830  775
708  642  589  539  498  467  464  453  426  399  375  351
326  302  278  253  229  204  181  159  136  115  94  73
53  36  20  6  0  0  0  0  0  0  0  0  0  0  0  0  0  0
1358  1353  1360  1365  1368  1372  1372  1369  1364  1357
1349  1339  1325  1309  1292  1270  1247  1224  1196  1170
1147  1119  1090  1056  1016  974  932  889  843  797  742
677  607  548  490  458  427  426  408  380  357  332  309
287  264  241  220  199  177  157  135  115  95  75  57
40  23  10  2  0  0  0  0  0  0  0  0  0  0  0  0  0  0
1358  1372  1377  1380  1380  1377  1372  1366  1357  1344
1330  1312  1294  1273  1249  1223  1196  1165  1130  1093
1055  1018  984  948  910  866  822  777  731  683  634
578  510  438  361  340  311  306  288  266  245  222  203
185  167  150  134  115  100  83  68  52  38  25  13  5
1  0  0  0  0  0  0  0  0  0  0  0  0  0  0  0  0
1358  1362  1366  1363  1358  1351  1341  1328  1313  1294
1274  1251  1224  1196  1168  1134  1099  1062  1022  981
939  895  848  800  752  699  647  593  544  498  449  399
346  292  207  167  138  132  114  98  86  72  59  49  38
28  19  11  6  2  2  0  0  0  0  0  0  0  0  0  0  0  0
0  0  0  0  1  1  1  1  0  0
1358  1363  1360  1353  1342  1330  1313  1294  1275  1255
1229  1199  1165  1130  1092  1052  1011  968  922  875
826  774  721  667  612  557  502  446  391  334  277  222
168  112  58  19  0  0  0  0  0  0  0  0  0  0  0  0  0
0  0  0  0  0  0  0  0  0  0  0  0  0  0  0  0  0  0  0
0  0  0  0  0
1358  1358  1350  1339  1327  1312  1298  1282  1269  1252
1229  1203  1176  1159  1116  1081  1045  1005  960  917
873  827  787  745  698  644  585  530  471  402  317  227
144  69  9  0  0  0  0  0  0  0  0  0  0  0  0  0  0  0
0  0  0  0  0  0  0  0  0  0  0  0  0  0  0  0  0  0  0
0  0  0  0
1358  1363  1354  1341  1327  1316  1308  1302  1294  1277
1256  1231  1203  1177  1147  1122  1098  1070  1039  997
954  909  863  811  748  674  584  490  399  307  217  135
59  0  0  0  0  0  0  0  0  0  0  0  0  0  0  0  0  0  0
0  0  0  0  0  0  0  0  0  0  0  0  0  0  0  0  0  0  0
0  0  0
1358  1344  1336  1323  1307  1302  1311  1309  1296  1278
1256  1237  1219  1207  1192  1171  1142  1109  1074  1037
998  944  881  802  709  615  521  424  331  240  154  79
9  0  0  0  0  0  0  0  0  0  0  0  0  0  0  0  0  0  0
0  0  0  0  0  0  0  0  0  0  0  0  0  0  0  0  0  0  0
0  0  0
1358  1341  1337  1318  1300  1314  1318  1310  1298  1280
1261  1246  1235  1222  1207  1181  1148  1116  1084  1047
1001  944  868  782  687  593  496  399  306  216  135  59
0  0  0  0  0  0  0  0  0  0  0  0  0  0  0  0  0  0  0
0  0  0  0  0  0  0  0  0  0  0  0  0  0  0  0  0  0  0
0  0  0
1358  1339  1330  1306  1306  1317  1315  1306  1292  1275
1256  1237  1218  1202  1185  1164  1134  1099  1061  1025
986  936  875  798  710  616  521  426  333  243  159  86
13  0  0  0  0  0  0  0  0  0  0  0  0  0  0  0  0  0  0
0  0  0  0  0  0  0  0  0  0  0  0  0  0  0  0  0  0  0
0  0  0
1358  1351  1336  1331  1330  1327  1321  1310  1298  1284
1265  1242  1214  1186  1156  1126  1100  1074  1044  1005
958  911  860  809  751  682  599  504  413  322  232  148
77  9  1  1  0  0  0  0  0  0  0  0  0  0  0  0  0  0  0
0  0  0  0  0  0  0  0  0  0  0  0  0  0  0  0  0  0  0
0  0  0
1358  1344  1339  1333  1326  1315  1302  1288  1270  1251
1229  1204  1178  1149  1117  1082  1045  1007  966  921
873  823  773  727  685  642  586  525  467  404  335  251
166  89  28  7  5  5  3  3  2  1  1  1  1  0  0  0  1  1
1  1  1  0  0  0  0  0  0  0  0  0  0  0  0  1  1  1  2
2  1  0  0
1358  1366  1367  1362  1353  1340  1325  1306  1285  1260
1234  1204  1171  1136  1098  1058  1016  971  926  879
831  778  729  677  623  570  515  461  404  345  286  225
165  106  48  10  0  0  0  0  0  0  0  0  0  0  0  0  0
0  0  0  0  0  0  0  0  0  0  0  0  0  0  0  0  0  0  0
0  0  0  0  0
