IESNA:LM-63-2002
[TEST] LTL16800
[TESTDATE] 6/27/2008
[ISSUEDATE] 7/10/2008
[TESTLAB] ACUITY BRANDS LIGHTING CONYERS LAB
[MANUFAC] Lithonia Lighting
[LUMCAT] 2UC 30 120
[LUMINAIRE] 36" RESIDENTIAL SLIM UNDERCABINET LAMP.  [ PRO-RATED FROM LTL16799 ]
[LAMPCAT] F30T12/CW/RS
[LAMP] ONE 30-WATT T12  LINEAR FLUORESCENT, HORIZONTAL POSITION
[BALLAST] KEYSTONE 140-TP [ 30W MODE ]
[BALLASTCAT] 
[DISTRIBUTION] SEMI-DIRECT, SC-0=1.27, SC-90=1.44
[_LAMPPOSITION] 0 , 0
[_LAMPTYPE] T12 LINEAR FLUORESCENT
[_LAMPWATTAGE] 30
[_LAMPLUMENS] 2200
[_MOUNTING] Surface
[_FAMILY] T12 Fluorescent Cabinet Light
[_PRODUCTID] b0f885be-4702-464e-8102-f50a7c298171
[_BALLAST_TYPE] MAGNETIC
[_FIXTURE_TYPE] 1X3 LENSED
TILT=NONE
1  2200  1  73  17  1  1  0.19  3  0.13
1  1  27
0  2.5  5  7.5  10  12.5  15  17.5  20  22.5  25  27.5  30
32.5  35  37.5  40  42.5  45  47.5  50  52.5  55  57.5  60
62.5  65  67.5  70  72.5  75  77.5  80  82.5  85  87.5  90
92.5  95  97.5  100  102.5  105  107.5  110  112.5  115
117.5  120  122.5  125  127.5  130  132.5  135  137.5  140
142.5  145  147.5  150  152.5  155  157.5  160  162.5  165  167.5  170  172.5  175  177.5  180
0  22.5  45  67.5  90  112.5  135  157.5  180  202.5  225  247.5  270  292.5  315  337.5  360
233  233  234  233  232  229  226  223  219  215  211  205
199  193  186  179  172  164  156  147  139  130  121  111
102  92  82  72  62  52  42  31  22  14  6  1  0  0  0  0
0  1  1  1  1  1  0  1  1  1  1  1  1  1  1  1  1  1  1
1  1  0  0  0  0  0  0  1  0  0  0  0  0
233  236  237  239  239  239  239  238  236  234  232  229
225  221  217  212  206  200  194  188  181  174  166  158
149  140  131  122  113  104  94  86  77  68  60  54  49
48  46  45  44  43  42  40  38  37  35  33  31  29  27  25
23  21  18  14  11  9  7  5  4  2  0  0  0  0  0  0  0  0
0  0  0
233  243  246  249  251  254  255  257  257  258  258  257
255  253  250  247  243  239  234  229  223  217  211  204
197  190  182  175  166  158  150  143  134  127  119  111
106  104  103  101  99  97  95  92  90  87  84  81  78  74
71  67  63  59  55  51  46  42  35  32  27  20  14  10  7
4  1  0  0  0  0  0  0
233  239  244  248  252  255  259  261  263  265  266  267
267  266  265  263  260  258  254  251  246  241  236  231
226  220  214  207  200  193  186  179  171  164  156  148
142  140  138  136  134  131  128  125  121  118  114  110
106  101  97  92  87  83  77  72  66  61  55  50  44  38
31  25  18  9  5  2  0  0  0  0  0
233  238  243  248  253  257  260  264  266  268  270  272
272  272  271  269  267  265  262  259  255  250  247  243
238  232  226  219  212  205  198  191  183  175  168  161
154  152  150  148  145  143  139  136  132  128  124  120
115  111  106  101  96  90  85  79  74  68  62  56  50  43
37  31  24  16  9  5  1  0  0  0  0
233  235  240  244  248  252  255  257  259  261  263  263
263  262  262  260  258  256  253  249  246  242  238  233
228  221  215  209  202  195  188  181  174  166  158  150
145  143  141  139  136  134  131  128  124  121  117  113
109  105  100  96  91  86  81  75  70  64  59  53  47  41
35  30  23  15  9  5  1  0  0  0  0
233  239  243  246  249  251  252  253  254  254  254  253
252  250  247  244  241  237  232  227  222  217  211  205
198  191  183  176  169  161  154  146  138  131  121  115
110  109  107  105  104  102  100  98  95  93  90  87  84
81  77  74  70  66  62  58  54  49  45  40  36  31  24  18
11  8  4  2  1  1  1  1  0
233  232  234  236  236  237  236  235  234  232  230  227
224  220  216  211  206  200  195  188  182  175  167  159
151  143  134  125  117  108  99  90  82  74  65  59  55
54  53  52  51  50  49  48  46  45  43  42  40  38  36  34
32  30  28  26  23  19  16  13  10  8  5  3  2  1  2  1
1  1  1  1  0
233  234  234  233  231  228  225  222  218  215  210  205
198  192  186  179  171  163  155  146  138  129  119  110
100  90  80  71  60  50  40  30  21  13  6  2  0  0  0  0
0  0  1  1  1  1  0  1  1  1  1  1  1  1  1  1  1  1  1
1  0  0  0  0  0  1  0  0  0  0  0  0  0
233  232  229  225  221  217  213  210  207  203  199  194
188  182  176  170  162  155  148  140  132  123  114  105
95  86  76  67  58  48  39  31  22  14  7  2  0  0  0  1
1  1  1  1  1  1  1  1  1  1  1  2  2  2  2  2  2  2  2
2  1  1  1  1  1  1  1  1  1  1  1  0  0
233  234  229  224  221  218  215  212  209  205  199  194
188  182  175  168  161  154  146  137  129  120  112  103
94  84  75  66  57  48  39  31  23  15  7  1  0  0  1  1
1  1  1  1  1  1  1  1  1  1  1  1  1  1  1  2  2  2  2
2  2  2  1  2  1  1  1  1  1  1  0  0  0
233  227  222  218  214  211  210  208  204  199  194  189
183  177  170  164  156  149  142  134  126  117  109  100
91  83  74  65  56  47  38  30  21  13  6  1  0  0  0  0
0  1  1  1  1  1  1  1  1  1  1  1  1  1  1  1  1  1  1
1  1  1  1  1  1  1  1  1  1  1  1  0  0
233  225  221  217  212  211  210  207  203  198  193  187
182  175  169  162  155  147  140  132  124  115  107  98
89  80  72  63  54  46  37  29  20  12  5  0  0  0  0  0
0  0  0  0  0  0  0  0  1  0  0  1  1  1  0  1  1  1  1
1  1  1  1  1  1  1  1  1  0  0  0  0  0
233  223  219  213  211  211  209  206  201  196  192  187
181  174  168  161  154  147  139  131  123  115  107  98
89  81  72  63  55  46  37  29  21  13  6  1  0  0  0  0
0  1  1  1  1  1  1  1  1  1  1  1  1  1  1  1  1  1  1
1  1  1  1  1  1  1  0  0  0  0  0  0  0
233  229  223  220  219  218  215  212  208  204  199  193
188  182  175  168  160  152  145  136  128  120  111  102
93  83  74  65  56  47  39  30  22  14  7  1  1  1  1  1
1  1  1  2  2  2  2  2  2  2  2  2  2  2  2  2  2  2  3
2  3  3  1  1  1  1  1  1  1  1  1  1  0
233  227  224  221  218  215  213  210  206  202  198  193
187  182  175  168  161  154  147  139  131  122  113  104
95  86  77  67  57  48  39  31  22  15  8  3  1  1  2  2
2  2  2  2  2  2  2  3  3  2  3  3  3  3  3  3  3  3  3
3  2  1  1  2  1  2  2  2  2  1  1  1  0
233  233  234  233  232  229  226  223  219  215  211  205
199  193  186  179  172  164  156  147  139  130  121  111
102  92  82  72  62  52  42  31  22  14  6  1  0  0  0  0
0  1  1  1  1  1  0  1  1  1  1  1  1  1  1  1  1  1  1
1  1  0  0  0  0  0  0  1  0  0  0  0  0
