IESNA:LM-63-2002
[TEST] LTL16799
[TESTDATE] 6/27/2008
[ISSUEDATE] 7/10/2008
[TESTLAB] ACUITY BRANDS LIGHTING CONYERS LAB
[MANUFAC] Lithonia Lighting
[LUMCAT] 2UC 40 120
[LUMINAIRE] 48" RESIDENTIAL SLIM UNDERCABINET LAMP
[LAMPCAT] F40/D841
[LAMP] ONE 40-WATT T12  LINEAR FLUORESCENT, HORIZONTAL POSITION
[BALLAST] KEYSTONE 140-TP
[BALLASTCAT] 
[DISTRIBUTION] SEMI-DIRECT, SC-0=1.27, SC-90=1.44
[_LAMPPOSITION] 0 , 0
[_LAMPTYPE] T12 LINEAR FLUORESCENT
[_LAMPWATTAGE] 40
[_LAMPLUMENS] 3150
[_MOUNTING] Surface
[_FAMILY] T12 Fluorescent Cabinet Light
[_PRODUCTID] d3f5d6cd-447e-49cb-bf35-07fa80ddf766
[_BALLAST_TYPE] MAGNETIC
[_FIXTURE_TYPE] 1X4 LENSED
TILT=NONE
1  3150  1  73  17  1  1  0.19  4  0.13
1  1  34.3
0  2.5  5  7.5  10  12.5  15  17.5  20  22.5  25  27.5  30
32.5  35  37.5  40  42.5  45  47.5  50  52.5  55  57.5  60
62.5  65  67.5  70  72.5  75  77.5  80  82.5  85  87.5  90
92.5  95  97.5  100  102.5  105  107.5  110  112.5  115
117.5  120  122.5  125  127.5  130  132.5  135  137.5  140
142.5  145  147.5  150  152.5  155  157.5  160  162.5  165  167.5  170  172.5  175  177.5  180
0  22.5  45  67.5  90  112.5  135  157.5  180  202.5  225  247.5  270  292.5  315  337.5  360
334  334  335  333  331  328  324  319  314  308  301  294
285  276  266  257  246  234  223  210  199  186  173  159
146  132  117  103  89  74  60  45  31  19  9  2  0  0  0
0  0  1  1  1  1  1  1  1  1  1  1  1  2  2  2  2  2  2
2  1  2  0  0  0  0  0  0  1  1  0  1  0  0
334  338  340  342  342  343  342  341  338  336  332  328
323  317  311  303  295  287  278  269  259  249  237  226
213  201  188  175  162  148  135  122  110  97  86  78
70  68  66  65  63  61  60  57  55  53  50  47  45  42  39
36  33  30  25  20  15  13  10  8  5  3  1  0  0  0  0  0
0  0  0  0  0
334  348  352  356  360  363  366  368  369  369  369  367
365  362  358  353  348  342  335  328  320  311  302  292
282  272  261  250  238  226  215  204  192  182  171  159
152  150  147  145  142  139  136  132  129  125  120  117
112  107  101  96  91  85  79  73  66  60  51  46  38  29
20  14  9  5  2  0  0  0  0  0  0
334  342  349  355  360  366  370  374  377  380  381  382
382  381  379  377  373  369  364  359  353  346  338  331
324  315  306  296  286  276  266  256  245  234  223  211
203  200  198  194  191  187  184  179  174  169  164  157
152  145  139  132  125  118  111  103  95  87  79  71  63
55  45  36  25  13  7  4  0  0  0  0  0
334  341  348  355  362  367  373  378  381  384  387  389
390  390  388  386  383  380  376  371  365  358  353  347
340  332  323  314  304  294  284  273  262  251  240  230
221  218  215  211  208  204  199  195  189  183  178  171
165  158  152  145  137  129  122  114  106  97  89  80
71  62  53  44  35  23  13  7  1  0  0  0  0
334  336  344  350  355  360  365  369  372  374  376  377
377  375  375  373  370  367  363  357  352  346  341  334
326  317  308  299  290  280  270  259  249  238  226  215
207  204  202  199  195  192  188  183  178  173  167  162
156  150  143  137  130  123  115  108  100  92  84  75
68  59  51  42  33  21  13  7  1  0  0  0  0
334  343  348  352  356  359  361  363  364  364  364  362
360  358  354  350  345  339  333  326  319  311  303  294
283  273  263  253  242  231  220  209  198  188  174  164
158  156  154  151  149  146  143  141  137  133  129  125
121  116  111  106  101  95  89  83  77  71  64  58  51
44  35  26  16  11  6  2  1  1  1  1  0
334  333  336  337  338  339  338  337  335  332  329  325
320  315  309  303  295  287  279  270  260  250  240  228
216  204  192  179  167  154  141  129  117  106  93  85
78  77  75  74  73  72  70  68  66  64  62  60  57  55  52
49  46  43  40  37  33  28  23  18  14  12  7  5  3  2  3
2  2  2  2  2  0
334  336  335  333  330  327  323  318  312  307  301  293
284  275  266  256  245  233  222  210  197  185  171  157
143  129  115  101  87  72  57  43  30  19  9  2  0  0  0
0  0  1  1  1  1  1  1  1  1  1  1  1  1  1  2  2  2  2
2  1  1  1  0  0  0  1  0  0  0  0  0  0  0
334  332  328  323  317  311  306  300  296  291  284  277
269  261  252  243  232  223  211  200  189  176  163  150
137  123  109  96  83  69  56  44  32  21  11  3  1  0  1
1  1  1  1  1  1  2  2  2  2  2  2  2  2  2  2  2  3  3
3  3  2  2  2  2  2  2  2  2  2  1  1  0  0
334  335  328  320  316  312  308  303  299  293  285  278
269  260  250  241  230  220  208  197  185  172  160  147
134  121  107  95  82  69  56  44  32  21  10  2  1  1  1
1  1  1  1  1  1  1  2  2  2  2  2  2  2  2  2  2  3  3
3  3  3  3  2  2  2  2  2  2  2  1  1  0  0
334  325  318  313  307  303  301  298  292  285  278  270
261  253  244  234  224  214  203  192  180  168  156  143
131  118  105  93  80  67  55  43  31  19  9  1  0  0  0
1  1  1  1  1  1  1  1  1  1  1  1  1  1  1  1  2  2  2
2  2  2  2  2  2  2  2  1  1  1  1  1  0  0
334  323  316  310  303  302  301  296  290  283  276  268
260  251  241  232  221  211  200  189  177  165  153  141
128  115  103  90  78  65  53  41  29  17  7  0  0  0  0
0  0  0  0  0  0  1  1  1  1  1  1  1  1  1  1  1  1  1
1  1  1  1  1  1  1  1  1  1  1  1  0  0  0
334  320  313  305  302  303  299  294  288  281  274  267
259  249  241  230  221  210  199  188  177  165  153  140
128  116  103  91  78  66  53  42  30  19  8  1  0  0  0
1  1  1  1  1  1  1  1  1  1  1  1  1  1  1  1  2  2  2
2  2  2  2  2  2  2  1  0  0  1  0  0  0  0
334  328  319  315  313  311  308  303  298  291  285  277
269  260  250  240  229  218  207  195  183  171  159  145
133  119  106  94  81  68  55  43  32  21  10  2  2  2  2
2  2  2  2  2  2  3  2  3  3  3  3  3  3  3  3  3  3  3
4  4  4  4  2  1  1  1  1  1  2  1  1  1  0
334  325  320  317  312  308  304  300  295  289  283  276
268  260  251  241  231  221  210  198  187  175  162  149
136  123  110  96  82  69  56  44  32  21  12  4  2  2  2
3  3  2  3  3  3  3  3  4  4  4  4  4  4  4  4  5  5  5
5  4  2  2  2  2  2  2  2  3  2  2  2  2  0
334  334  335  333  331  328  324  319  314  308  301  294
285  276  266  257  246  234  223  210  199  186  173  159
146  132  117  103  89  74  60  45  31  19  9  2  0  0  0
0  0  1  1  1  1  1  1  1  1  1  1  1  2  2  2  2  2  2
2  1  2  0  0  0  0  0  0  1  1  0  1  0  0
